time_s,ecg_processed
0.0,-0.006017983825401084
0.0025,-0.006060494298953471
0.005,-0.006102895826221767
0.0075,-0.006145185087417423
0.01,-0.006187358750006535
0.0125,-0.006229413468843015
0.015,-0.006271345886303392
0.0175,-0.006313152632423211
0.02,-0.006354830325035049
0.0225,-0.006396375569908108
0.025,-0.0064377849608893995
0.0275,-0.006479055080046527
0.03,-0.006520182497812074
0.0325,-0.006561163773129601
0.035,-0.006601995453601248
0.0375,-0.006642674075636932
0.04,-0.0066831961646051635
0.0425,-0.006723558234985486
0.045,-0.006763756790522501
0.0475,-0.006803788324381473
0.05,-0.0068436493193055154
0.0525,-0.006883336247774406
0.055,-0.006922845572165027
0.0575,-0.006962173744913409
0.06,-0.007001317208678405
0.0625,-0.007040272396506955
0.065,-0.007079035732000927
0.0675,-0.007117603629485517
0.07,-0.007155972494179235
0.0725,-0.007194138722365525
0.075,-0.0072320987015660155
0.0775,-0.007269848810715376
0.08,-0.007307385420337818
0.0825,-0.007344704892725187
0.085,-0.007381803582116658
0.0875,-0.007418677834880003
0.09,-0.007455323989694433
0.0925,-0.007491738377735025
0.095,-0.007527917322858741
0.0975,-0.007563857141792039
0.1,-0.007599554144320089
0.1025,-0.007635004633477552
0.105,-0.007670204905740922
0.1075,-0.007705151251222435
0.11,-0.007739839953865542
0.1125,-0.007774267291641973
0.115,-0.007808429536750382
0.1175,-0.007842322955816628
0.12,-0.007875943810095647
0.1225,-0.007909288355674832
0.125,-0.007942352843678913
0.1275,-0.00797513352047636
0.13,-0.008007626627887359
0.1325,-0.008039828403393404
0.135,-0.008071735080348476
0.1375,-0.00810334288819174
0.14,-0.008134648052661807
0.1425,-0.008165646796012515
0.145,-0.008196335337230201
0.1475,-0.00822670989225251
0.15,-0.008256766674188702
0.1525,-0.00828650189354153
0.155,-0.008315911758430624
0.1575,-0.008344992474817441
0.16,-0.008373740246731754
0.1625,-0.008402151276499579
0.165,-0.008430221764972542
0.1675,-0.008457947911758695
0.17,-0.008485325915454776
0.1725,-0.00851235197388002
0.175,-0.008539022284311498
0.1775,-0.008565333043720967
0.18,-0.008591280449013129
0.1825,-0.008616860697265333
0.185,-0.008642069985968727
0.1875,-0.008666904513270854
0.19,-0.00869136047821976
0.1925,-0.008715434081009521
0.195,-0.00873912152322716
0.1975,-0.008762419008100967
0.2,-0.008785322740750163
0.2025,-0.008807828928435924
0.205,-0.008829933780813868
0.2075,-0.00885163351018802
0.21,-0.008872924331766235
0.2125,-0.008893802463917019
0.215,-0.008914264128427692
0.2175,-0.008934305550763817
0.22,-0.008953922960329942
0.2225,-0.008973112590731708
0.225,-0.008991870680039362
0.2275,-0.009010193471052664
0.23,-0.009028077211567107
0.2325,-0.009045518154641408
0.235,-0.009062512558866271
0.2375,-0.009079056688634502
0.24,-0.009095146814412472
0.2425,-0.009110779213012869
0.245,-0.009125950167868739
0.2475,-0.009140655969308723
0.25,-0.009154892914833545
0.2525,-0.009168657309393676
0.255,-0.009181945465668216
0.2575,-0.009194753704345027
0.26,-0.009207078354402083
0.2625,-0.00921891575339006
0.265,-0.009230262247716163
0.2675,-0.009241114192929166
0.27,-0.009251467954005672
0.2725,-0.009261319905637546
0.275,-0.009270666432520438
0.2775,-0.009279503929643391
0.28,-0.00928782880257949
0.2825,-0.009295637467777553
0.285,-0.009302926352854976
0.2875,-0.009309691896891788
0.29,-0.00931593055072596
0.2925,-0.009321638777249832
0.295,-0.009326813051707699
0.2975,-0.00933144986199435
0.3,-0.009335545708954632
0.3025,-0.009339097106683921
0.305,-0.009342100582829607
0.3075,-0.009344552678893536
0.31,-0.009346449950535537
0.3125,-0.00934778896787793
0.315,-0.009348566315811067
0.3175,-0.009348778594299851
0.32,-0.009348422418691217
0.3225,-0.009347494420022555
0.325,-0.009345991245331031
0.3275,-0.009343909557963808
0.33,-0.00934124603788913
0.3325,-0.009337997382008311
0.335,-0.0093341603044686
0.3375,-0.009329731536976917
0.34,-0.009324707829114392
0.3425,-0.009319085948651738
0.345,-0.009312862681865397
0.3475,-0.009306034833854485
0.35,-0.009298599228858517
0.3525,-0.009290552710575906
0.355,-0.009281892142483256
0.3575,-0.009272614408155442
0.36,-0.009262716411586491
0.3625,-0.00925219507751127
0.365,-0.009241047351727814
0.3675,-0.009229270201420269
0.37,-0.009216860615482388
0.3725,-0.009203815604841604
0.375,-0.009190132202783717
0.3775,-0.009175807465278183
0.38,-0.009160838471304089
0.3825,-0.00914522232317681
0.385,-0.009128956146875278
0.3875,-0.009112037092369855
0.39,-0.009094462333950757
0.3925,-0.00907622907055698
0.395,-0.009057334526105595
0.3975,-0.00903777594982149
0.4,-0.009017550616567557
0.4025,-0.008996655827175355
0.405,-0.008975088908776263
0.4075,-0.008952847215133055
0.41,-0.008929928126971909
0.4125,-0.008906329052314808
0.415,-0.008882047426812305
0.4175,-0.008857080714076678
0.42,-0.008831426406015436
0.4225,-0.008805082023165212
0.425,-0.00877804511502599
0.4275,-0.008750313260395584
0.43,-0.008721884067704284
0.4325,-0.008692755175349658
0.435,-0.008662924252031553
0.4375,-0.008632388997087332
0.44,-0.008601147140827416
0.4425,-0.008569196444870992
0.445,-0.008536534702481903
0.4475,-0.008503159738904673
0.45,-0.008469069411700664
0.4525,-0.008434261611084258
0.455,-0.008398734260259107
0.4575,-0.008362485315754405
0.46,-0.008325512767761176
0.4625,-0.008287814640468544
0.465,-0.008249388992400034
0.4675,-0.008210233916749927
0.47,-0.008170347541719608
0.4725,-0.00812972803085384
0.475,-0.008088373583376966
0.4775,-0.008046282434528967
0.48,-0.008003452855901379
0.4825,-0.007959883155772986
0.485,-0.007915571679445312
0.4875,-0.007870516809577873
0.49,-0.007824716966523282
0.4925,-0.007778170608662182
0.495,-0.007730876232737957
0.4975,-0.007682832374191182
0.5,-0.007634037607493776
0.5025,-0.0075844905464828105
0.505,-0.007534189844693949
0.5075,-0.00748313419569454
0.51,-0.007431322333416351
0.5125,-0.007378753032487929
0.515,-0.007325425108566566
0.5175,-0.007271337418669829
0.52,-0.007216488861506596
0.5225,-0.007160878377807577
0.525,-0.007104504950655311
0.5275,-0.007047367605813628
0.53,-0.006989465412056551
0.5325,-0.006930797481496605
0.535,-0.0068713629699125416
0.5375,-0.0068111610770764195
0.54,-0.006750191047080084
0.5425,-0.006688452168660959
0.545,-0.0066259437755271655
0.5475,-0.00656266524668189
0.55,-0.006498616006747003
0.5525,-0.006433795526285906
0.555,-0.006368203322125573
0.5575,-0.006301838957677754
0.56,-0.006234702043259378
0.5625,-0.006166792236412123
0.565,-0.0060981092422211225
0.5675,-0.006028652813632752
0.57,-0.005958422751771504
0.5725,-0.0058874189062558735
0.575,-0.005815641175513279
0.5775,-0.005743089507094
0.58,-0.0056697638979841
0.5825,-0.005595664394917296
0.585,-0.005520791094685738
0.5875,-0.005445144144449666
0.59,-0.005368723742045945
0.5925,-0.0052915301362955
0.595,-0.005213563627309585
0.5975,-0.005134824566794898
0.6,-0.005055313358357474
0.6025,-0.004975030457805347
0.605,-0.0048939763734499155
0.6075,-0.004812151666406009
0.61,-0.0047295569508906095
0.6125,-0.004646192894520233
0.615,-0.0045620602186069404
0.6175,-0.004477159698452948
0.62,-0.004391492163643797
0.6225,-0.004305058498340064
0.625,-0.004217859641567624
0.6275,-0.004129896587506428
0.63,-0.004041170385777773
0.6325,-0.003951682141729998
0.635,-0.003861433016722614
0.6375,-0.003770424228408849
0.64,-0.003678657051016613
0.6425,-0.0035861328156278306
0.645,-0.0034928529104561045
0.6475,-0.0033988187811226484
0.65,-0.003304031930930491
0.6525,-0.0032084939211369213
0.655,-0.0031122063712241523
0.6575,-0.003015170959168179
0.66,-0.0029173894217058207
0.6625,-0.0028188635545999294
0.665,-0.0027195952129027362
0.6675,-0.002619586311217301
0.67,-0.002518838823957023
0.6725,-0.002417354785603194
0.675,-0.002315136290960577
0.6775,-0.00221218549541097
0.68,-0.002108504615164727
0.6825,-0.0020040959275102227
0.685,-0.0018989617710612255
0.6875,-0.0017931045460021714
0.69,-0.0016865267143313088
0.6925,-0.0015792308001016883
0.695,-0.0014712193896599661
0.6975,-0.0013624951318829896
0.7,-0.0012530607384121492
0.7025,-0.001142918983885464
0.705,-0.0010320727061673767
0.7075,-0.0009205248065762341
0.71,-0.000808278250109421
0.7125,-0.0006953360656661257
0.715,-0.0005817013462677085
0.7175,-0.000467377249275648
0.72,-0.0003523669966070429
0.7225,-0.00023667387494764175
0.725,-0.0001203012359623801
0.7275,-3.252496503396332e-06
0.73,0.00011446886118449991
0.7325,0.00023285928926093945
0.735,0.0003519151740897152
0.7375,0.0004716328360411407
0.74,0.0005920085292970628
0.7425,0.0007130384416585429
0.745,0.000834718694356226
0.7475,0.0009570453418634273
0.75,0.0010800143717119776
0.7525,0.0012036217043108583
0.755,0.001327863192767656
0.7575,0.001452734622712857
0.76,0.0015782317121270006
0.7625,0.001704350111170708
0.765,0.0018310854020176083
0.7675,0.0019584330986902
0.77,0.0020863886468986685
0.7725,0.00221494742388269
0.775,0.002344104738256253
0.7775,0.002473855829855523
0.78,0.0026041958695897562
0.7825,0.002735119959295288
0.785,0.0028666231315926057
0.7875,0.0029987003497465685
0.79,0.003131346507529805
0.7925,0.003264556429089345
0.795,0.0033983248688164843
0.7975,0.0035326465112198837
0.8,0.003667515970801894
0.8025,0.003802927791938139
0.805,0.003938876448760377
0.8075,0.004075356345042664
0.81,0.004212361814090885
0.8125,0.004349887118635675
0.815,0.004487926450728784
0.8175,0.004626473931642895
0.82,0.004765523611774928
0.8225,0.004905069470552868
0.825,0.005045105416346069
0.8275,0.005185625286379064
0.83,0.005326622846648878
0.8325,0.0054680917918459035
0.835,0.0056100257452783575
0.8375,0.005752418258800338
0.84,0.005895262812743492
0.8425,0.006038552815852355
0.845,0.006182281605223387
0.8475,0.006326442446247759
0.85,0.0064710285325579224
0.8525,0.006616032985977965
0.855,0.006761448856477737
0.8575,0.006907269122130761
0.86,0.007053486689075986
0.8625,0.007200094391483391
0.865,0.007347084991523441
0.8675,0.007494451179340373
0.87,0.0076421855730293715
0.8725,0.007790280718617628
0.875,0.007938729090049402
0.8775,0.008087523089175128
0.88,0.008236655045744558
0.8825,0.008386117217403994
0.885,0.008535901789697615
0.8875,0.008686000876072837
0.89,0.008836406517889714
0.8925,0.008987110684434366
0.895,0.009138105272936478
0.8975,0.009289382108590923
0.9,0.00944093294458356
0.9025,0.009592749462121268
0.905,0.009744823270466206
0.9075,0.009897145906974334
0.91,0.010049708837138138
0.9125,0.010202503454633575
0.915,0.010355521081371314
0.9175,0.010508752967552278
0.92,0.010662190291727583
0.9225,0.010815824160862872
0.925,0.010969645610406989
0.9275,0.01112364560436503
0.93,0.011277815035375689
0.9325,0.011432144724792972
0.935,0.011586625422772261
0.9375,0.011741247808360769
0.94,0.011896002489592548
0.9425,0.012050880003588098
0.945,0.01220587081665862
0.9475,0.01236096532441485
0.95,0.012516153851880525
0.9525,0.012671426653610242
0.955,0.01282677391381178
0.9575,0.012982185746472823
0.96,0.013137652195492277
0.9625,0.013293163234816219
0.965,0.013448708768578486
0.9675,0.013604278631245963
0.97,0.013759862587768582
0.9725,0.013915450333733993
0.975,0.014071031495526957
0.9775,0.014226595630493485
0.98,0.01438213222710969
0.9825,0.014537630705155296
0.985,0.014693080415891801
0.9875,0.014848470642245305
0.99,0.015003790598994204
0.9925,0.015159029432961803
0.995,0.015314176223213818
0.9975,0.015469219981260753
1.0,0.015624149651265178
1.0025,0.01577895411025371
1.005,0.015933622168333716
1.0075,0.016088142568914856
1.01,0.016242503988935616
1.0125,0.01639669503909478
1.015,0.01655070426408769
1.0175,0.016704520142847346
1.02,0.016858131088790383
1.0225,0.017011525450067913
1.025,0.017164691509821226
1.0275,0.01731761748644249
1.03,0.017470291533840384
1.0325,0.01762270174171083
1.035,0.017774836135812756
1.0375,0.017926682678248956
1.04,0.018078229267751874
1.0425,0.018229463739974253
1.045,0.018380373867784794
1.0475,0.018530947361568868
1.05,0.018681171869534285
1.0525,0.018831034978021886
1.055,0.018980524211820962
1.0575,0.019129627034489616
1.06,0.019278330848680122
1.0625,0.019426622996469484
1.065,0.019574490759695255
1.0675,0.019721921360296726
1.07,0.01986890196066129
1.0725,0.020015419663975877
1.075,0.02016146151458334
1.0775,0.020307014498343774
1.08,0.02045206554300069
1.0825,0.020596601518552214
1.085,0.020740609237627345
1.0875,0.0208840754558674
1.09,0.02102698687231269
1.0925,0.02116933012979422
1.095,0.02131109181533045
1.0975,0.02145225846052909
1.1,0.021592816541994003
1.1025,0.02173275248173722
1.105,0.021872052647596025
1.1075,0.022010703353655164
1.11,0.022148690860674152
1.1125,0.022286001376519603
1.115,0.022422621056602577
1.1175,0.022558536004320992
1.12,0.022693732271507113
1.1225,0.022828195858880223
1.125,0.022961912716504426
1.1275,0.023094868744251606
1.13,0.023227049792269472
1.1325,0.02335844166145468
1.135,0.023489030103931063
1.1375,0.023618800823532748
1.14,0.023747739476292308
1.1425,0.023875831670933892
1.145,0.02400306296937128
1.1475,0.024129418887211096
1.15,0.024254884894261156
1.1525,0.02437944641504386
1.155,0.02450308882931456
1.1575,0.0246257974725849
1.16,0.024747557636651155
1.1625,0.024868354570127742
1.165,0.024988173478985826
1.1675,0.0251069995270969
1.17,0.025224817836781304
1.1725,0.02534161348936164
1.175,0.025457371525721112
1.1775,0.025572076946866758
1.18,0.02568571471449753
1.1825,0.02579826975157723
1.185,0.025909726942912274
1.1875,0.026020071135734443
1.19,0.026129287140288657
1.1925,0.026237359730425718
1.195,0.026344273644200108
1.1975,0.026450013584472642
1.2,0.026554564219517938
1.2025,0.026657910183636512
1.205,0.02676003607777163
1.2075,0.026860926470130914
1.21,0.026960565896812685
1.2125,0.027058938862437026
1.215,0.02715602984078144
1.2175,0.02725182327542128
1.22,0.027346303580374855
1.2225,0.027439455140753227
1.225,0.02753126231341485
1.2275,0.027621709427624992
1.23,0.027710780785719945
1.2325,0.027798460663775802
1.235,0.027884733312281883
1.2375,0.027969582956818638
1.24,0.02805299379874007
1.2425,0.02813495001586045
1.245,0.028215435763145363
1.2475,0.028294435173407028
1.25,0.02837193235800414
1.2525,0.028447911407546447
1.255,0.02852235639260414
1.2575,0.02859525136442186
1.26,0.028666580355637055
1.2625,0.028736327381002652
1.265,0.02880447643811387
1.2675,0.02887101150813919
1.27,0.028935916556555627
1.2725,0.028999175533888297
1.275,0.029060772376454064
1.2775,0.029120691007109258
1.28,0.029178915336001445
1.2825,0.029235429261325427
1.285,0.029290216670083455
1.2875,0.02934326143884973
1.29,0.029394547434539252
1.2925,0.029444058515180695
1.295,0.029491778530693197
1.2975,0.029537691323666786
1.3,0.029581780730146813
1.3025,0.029624030580422296
1.305,0.029664424699818344
1.3075,0.02970294690949254
1.31,0.02973958102723526
1.3125,0.02977431086827393
1.315,0.029807120246081058
1.3175,0.029837992973185696
1.32,0.029866912861988178
1.3225,0.029893863725578302
1.325,0.0299188293785572
1.3275,0.029941793637862993
1.33,0.02996274032360017
1.3325,0.02998165325987267
1.335,0.029998516275620533
1.3375,0.030013313205460062
1.34,0.03002602789052717
1.3425,0.030036644179323804
1.345,0.03004514592856764
1.3475,0.030051517004045198
1.35,0.030055741281468283
1.3525,0.03005780264733392
1.355,0.030057684999787507
1.3575,0.03005537224948901
1.36,0.03005084832048208
1.3625,0.030044097151066027
1.365,0.030035102694670843
1.3675,0.030023848920735223
1.37,0.030010319815587723
1.3725,0.0299944993833309
1.375,0.029976371646728377
1.3775,0.029955920648094613
1.38,0.029933130450187355
1.3825,0.029907985137102803
1.385,0.02988046881517322
1.3875,0.02985056561386684
1.39,0.029818259686690052
1.3925,0.029783535212092302
1.395,0.029746376394373775
1.3975,0.02970676746459586
1.4,0.029664692681494107
1.4025,0.029620136332393604
1.405,0.02957308273412649
1.4075,0.029523516233951493
1.41,0.029471421210475534
1.4125,0.02941678207457753
1.415,0.029359583270334215
1.4175,0.02929980927594792
1.42,0.029237444604676414
1.4225,0.02917247380576475
1.425,0.02910488146537938
1.4275,0.029034652207544333
1.43,0.028961770695079127
1.4325,0.02888622163053793
1.435,0.02880798975714988
1.4375,0.02872705985976091
1.44,0.028643416765777335
1.4425,0.028557045346111136
1.445,0.02846793051612703
1.4475,0.028376057236591014
1.45,0.028281410514620034
1.4525,0.028183975404632813
1.455,0.028083737009301977
1.4575,0.02798068048050741
1.46,0.027874791020290644
1.4625,0.027766053881810353
1.465,0.027654454370298853
1.4675,0.027539977844019528
1.47,0.027422609715225043
1.4725,0.027302335451116322
1.475,0.027179140574802384
1.4775,0.027053010666260865
1.48,0.026923931363299312
1.4825,0.02679188836251701
1.485,0.026656867420267363
1.4875,0.026518854353620728
1.49,0.026377835041327603
1.4925,0.026233795424782092
1.495,0.026086721508985562
1.4975,0.025936599363510646
1.5,0.025783415123465377
1.5025,0.02562715499045732
1.505,0.02546780523355781
1.5075,0.025305352190266306
1.51,0.025139782267474833
1.5125,0.02497108194243239
1.515,0.02479923776370905
1.5175,0.02462423635215959
1.52,0.024446064401886656
1.5225,0.024264708681203236
1.525,0.024080156033594483
1.5275,0.023892393378678947
1.53,0.02370140771316924
1.5325,0.0235071861118322
1.535,0.0233097157284484
1.5375,0.02310898379677091
1.54,0.022904977631483185
1.5425,0.022697684629155827
1.545,0.022487092269202147
1.5475,0.022273188114832542
1.55,0.02205595981400775
1.5525,0.02183539510039092
1.555,0.021611481794298358
1.5575,0.021384207803648768
1.56,0.021153561124910975
1.5625,0.020919529844050173
1.565,0.020682102137472718
1.5675,0.020441266272969303
1.57,0.020197010610656433
1.5725,0.019949323603916012
1.575,0.019698193800332997
1.5775,0.019443609842630976
1.58,0.019185560469605713
1.5825,0.018924034517056463
1.585,0.018659020918715158
1.5875,0.01839050870717331
1.59,0.018118487014806523
1.5925,0.017842945074696574
1.595,0.01756387222155105
1.5975,0.017281257892620437
1.6,0.016995091628612714
1.6025,0.016705363074605278
1.605,0.01641206198095403
1.6075,0.016115178204199537
1.61,0.015814701707970336
1.6125,0.015510622563883277
1.615,0.015202930952440775
1.6175,0.014891617163924831
1.62,0.014576671599287732
1.6225,0.014258084771039344
1.625,0.013935847304131024
1.6275,0.013609949936836127
1.63,0.013280383521627182
1.6325,0.012947139026049504
1.635,0.012610207533591109
1.6375,0.01226958024454875
1.64,0.011925248476889975
1.6425,0.011577203667111189
1.645,0.01122543737109167
1.6475,0.010869941264943506
1.65,0.010510707145857409
1.6525,0.01014772693294437
1.655,0.009780992668072993
1.6575,0.009410496516702458
1.66,0.009036230768711
1.6625,0.008658187839219832
1.665,0.00827636026941242
1.6675,0.007890740727349077
1.67,0.00750132200877673
1.6725,0.0071080970379338
1.675,0.006711058868350126
1.6775,0.00631020068364186
1.68,0.005905515798301301
1.6825,0.005496997658481589
1.685,0.0050846398427761424
1.6875,0.004668436062992732
1.69,0.0042483801649220885
1.6925,0.0038244661291009755
1.695,0.003396688071569686
1.6975,0.0029650402446238827
1.7,0.002529517037560736
1.7025,0.0020901129774192717
1.705,0.001646822729714835
1.7075,0.0011996410991675776
1.71,0.0007485630304248775
1.7125,0.000293583608777627
1.715,-0.00016530193912968016
1.7175,-0.0006280982445951301
1.72,-0.0010948097961619111
1.7225,-0.001565440938927255
1.725,-0.002039995873857883
1.7275,-0.002518478657112054
1.73,-0.0030008931993683024
1.7325,-0.003487243265160955
1.735,-0.003977532472222499
1.7375,-0.004471764290832881
1.74,-0.004969942043175795
1.7425,-0.0054720689027020495
1.745,-0.005978147893500071
1.7475,-0.006488181889673609
1.75,-0.007002173614726663
1.7525,-0.007520125640955744
1.755,-0.008042040388849531
1.7575,-0.008567920126496027
1.76,-0.009097766968997353
1.7625,-0.009631582877892233
1.765,-0.010169369660586227
1.7675,-0.010711128969789754
1.77,-0.011256862302964
1.7725,-0.011806571001774813
1.775,-0.012360256251554631
1.7775,-0.012917919080772545
1.78,-0.013479560360512588
1.7825,-0.014045180803960368
1.785,-0.014614780965898107
1.7875,-0.01518836124220824
1.79,-0.01576592186938556
1.7925,-0.01634746292405791
1.795,-0.01693298432251538
1.7975,-0.017522485820248002
1.8,-0.018115967011492075
1.8025,-0.01871342732878514
1.805,-0.019314866042529757
1.8075,-0.019920282260566302
1.81,-0.020529674927754933
1.8125,-0.021143042825566956
1.815,-0.021760384571685585
1.8175,-0.022381698619616114
1.82,-0.023006983258305344
1.8225,-0.02363623661177025
1.825,-0.024269456638735965
1.8275,-0.024906641132283195
1.83,-0.025547787719505284
1.8325,-0.02619289386117509
1.835,-0.026841956851421874
1.8375,-0.027494973817418146
1.84,-0.028151941719076624
1.8425,-0.028812857348757003
1.845,-0.029477717330982426
1.8475,-0.03014651812216569
1.85,-0.03081925601034519
1.8525,-0.03149592711493084
1.855,-0.03217652738646018
1.8575,-0.03286105260636497
1.86,-0.0335494983867484
1.8625,-0.034241860170173
1.865,-0.03493813322945922
1.8675,-0.035638312667494586
1.87,-0.036342393417053344
1.8725,-0.03705037024062683
1.875,-0.0377622377302645
1.8775,-0.03847799030742562
1.88,-0.039197622222841594
1.8825,-0.039921127556388956
1.885,-0.040648500216973395
1.8875,-0.041379733942424585
1.89,-0.04211482229940236
1.8925,-0.04285375868331411
1.895,-0.043596536318243534
1.8975,-0.04434314825689058
1.9,-0.04509358738052262
1.9025,-0.045847846398936964
1.905,-0.04660591785043457
1.9075,-0.04736779410180479
1.91,-0.04813346734832161
1.9125,-0.04890292961375116
1.915,-0.04967617275037098
1.9175,-0.050453188439000915
1.92,-0.051233968189045714
1.9225,-0.0520185033385494
1.925,-0.0528067850542613
1.9275,-0.05359880433171384
1.93,-0.05439455199531186
1.9325,-0.05519401869843361
1.935,-0.05599719492354365
1.9375,-0.056804070982318
1.94,-0.057614637015781275
1.9425,-0.0584288829944559
1.945,-0.05924679871852323
1.9475,-0.06006837381799629
1.95,-0.060893597752904635
1.9525,-0.06172245981349147
1.955,-0.06255494912042313
1.9575,-0.06339105462501021
1.96,-0.06423076510944077
1.9625,-0.06507406918702537
1.965,-0.06592095530245426
1.9675,-0.06677141173206724
1.97,-0.06762542658413619
1.9725,-0.0684829877991602
1.975,-0.0693440831501735
1.9775,-0.07020870024306543
1.98,-0.07107682651691197
1.9825,-0.0719484492443193
1.985,-0.07282355553177984
1.9875,-0.07370213232004104
1.99,-0.07458416638448674
1.9925,-0.07546964433553097
1.995,-0.07635855261902388
1.9975,-0.07725087751667024
2.0,-0.07814660514645981
2.0025,-0.07904572146311002
2.005,-0.07994821225852129
2.0075,-0.08085406316224471
2.01,-0.08176325964196242
2.0125,-0.08267578700398097
2.015,-0.08359163039373786
2.0175,-0.08451077479632108
2.02,-0.08543320503700144
2.0225,-0.0863589057817768
2.025,-0.08728786153792793
2.0275,-0.08822005665458642
2.03,-0.08915547532331493
2.0325,-0.09009410157870044
2.035,-0.0910359192989601
2.0375,-0.09198091220655927
2.04,-0.09292906386884149
2.0425,-0.09388035769867006
2.045,-0.094834776955082
2.0475,-0.0957923047439547
2.05,-0.09675292401868578
2.0525,-0.09771661758088578
2.055,-0.09868336808108365
2.0575,-0.09965315801944472
2.06,-0.10062596974650008
2.0625,-0.10160178546388828
2.065,-0.10258058722510918
2.0675,-0.1035623569362906
2.07,-0.10454707635696706
2.0725,-0.1055347271008713
2.075,-0.10652529063673781
2.0775,-0.10751874828911782
2.08,-0.10851508123920552
2.0825,-0.1095142705256757
2.085,-0.11051629704553291
2.0875,-0.1115211415549724
2.09,-0.11252878467025279
2.0925,-0.113539206868581
2.095,-0.11455238848900892
2.0975,-0.11556830973334188
2.1,-0.1165869506670591
2.1025,-0.11760829122024595
2.105,-0.11863231118853744
2.1075,-0.11965899023407357
2.11,-0.12068830788646613
2.1125,-0.12172024354377663
2.115,-0.12275477647350536
2.1175,-0.12379188581359094
2.12,-0.12483155057341988
2.1225,-0.12587374963484635
2.125,-0.12691846175322258
2.1275,-0.12796566555844094
2.13,-0.12901533955598962
2.1325,-0.13006746212802328
2.135,-0.131122011534448
2.1375,-0.13217896591401823
2.14,-0.1332383032854436
2.1425,-0.13430000154850008
2.145,-0.13536403848514197
2.1475,-0.1364303917606111
2.15,-0.13749903892454646
2.1525,-0.13856995741210268
2.155,-0.13964312454509095
2.1575,-0.14071851753315665
2.16,-0.14179611347500531
2.1625,-0.14287588935967513
2.165,-0.14395782206783353
2.1675,-0.14504188837305784
2.17,-0.14612806494304953
2.1725,-0.14721632834074083
2.175,-0.14830665502528448
2.1775,-0.14939902135297456
2.18,-0.1504934035782109
2.1825,-0.15158977785466654
2.185,-0.15268812023681344
2.1875,-0.15378840668187926
2.19,-0.15489061305214213
2.1925,-0.15599471511725768
2.195,-0.15710068855613066
2.1975,-0.15820850895779245
2.2,-0.15931815182093143
2.2025,-0.16042959255218334
2.205,-0.1615428064639571
2.2075,-0.162657768773236
2.21,-0.16377445460313522
2.2125,-0.1648928389886594
2.215,-0.16601289688687923
2.2175,-0.16713460318972256
2.22,-0.1682579327352911
2.2225,-0.16938286031203248
2.225,-0.1705093606503845
2.2275,-0.1716374083995734
2.23,-0.17276697809316802
2.2325,-0.17389804411449275
2.235,-0.17503058067932478
2.2375,-0.17616456185470936
2.24,-0.17729996162576245
2.2425,-0.1784367540056707
2.245,-0.17957491316038873
2.2475,-0.1807144134963384
2.25,-0.18185522964830775
2.2525,-0.1829973363179401
2.255,-0.18414070795795853
2.2575,-0.1852853183695881
2.26,-0.1864311403608545
2.2625,-0.18757814566697928
2.265,-0.18872630531988693
2.2675,-0.1898755905406542
2.27,-0.191025974015897
2.2725,-0.19217743115403785
2.275,-0.19332994069967066
2.2775,-0.1944834840464125
2.28,-0.19563804285040065
2.2825,-0.1967935951493062
2.285,-0.19795011103415383
2.2875,-0.19910754972850103
2.29,-0.20026586028911225
2.2925,-0.20142498762715505
2.295,-0.20258488391722093
2.2975,-0.20374552287821954
2.3,-0.20490691159636848
2.3025,-0.20606909275518137
2.305,-0.2072321307866974
2.3075,-0.20839607962844792
2.31,-0.2095609374155685
2.3125,-0.2107266027943206
2.315,-0.21189285502398106
2.3175,-0.2130593809428414
2.32,-0.21422586206832103
2.3225,-0.21539211331828448
2.325,-0.216558234933763
2.3275,-0.2177247111275541
2.33,-0.21889237746992402
2.3325,-0.22006219896770998
2.335,-0.22123486020678754
2.3375,-0.2224102611295443
2.34,-0.22358711061518366
2.3425,-0.2247628706553767
2.345,-0.22593427569641383
2.3475,-0.22709849835379076
2.35,-0.2282547583415791
2.3525,-0.22940584144159995
2.355,-0.23055873887998773
2.3575,-0.23172360076521312
2.36,-0.2329105633959376
2.3625,-0.23412479671982184
2.365,-0.23536117907265303
2.3675,-0.23660097995366786
2.37,-0.23781329523893022
2.3725,-0.2389632125672195
2.375,-0.2400265242762668
2.3775,-0.24100751766298617
2.38,-0.24195292251914988
2.3825,-0.24295307143442185
2.385,-0.24412251767658674
2.3875,-0.24555799086053046
2.39,-0.24728141546233462
2.3925,-0.24918735315745488
2.395,-0.25102300286598195
2.3975,-0.2524289131285656
2.4,-0.25305486602042765
2.4025,-0.25273685959671377
2.405,-0.2516832104502519
2.4075,-0.25058376074978866
2.41,-0.25054481604721335
2.4125,-0.2527814664105397
2.415,-0.25807579242542616
2.4175,-0.26612276267061585
2.42,-0.2749999702143674
2.4225,-0.28105672732731635
2.425,-0.27946221792000703
2.4275,-0.2654459964422209
2.43,-0.2359340847549949
2.4325,-0.19095155790558938
2.435,-0.1340495158606703
2.4375,-0.07135108750900175
2.44,-0.009563178794487578
2.4425,0.04603037779091107
2.445,0.0925880315173925
2.4475,0.12943556212563515
2.45,0.15696817225901008
2.4525,0.1755054130814984
2.455,0.1846738070939569
2.4575,0.18348291486573362
2.46,0.17091787968003752
2.4625,0.1467118432931595
2.465,0.11197320944789377
2.4675,0.0694527330287508
2.47,0.023368098025194
2.4725,-0.021181042236268453
2.475,-0.05907598164676002
2.4775,-0.08610604804788273
2.48,-0.09971676156526608
2.4825,-0.09939564712208433
2.485,-0.08663623632815433
2.4875,-0.06454194230702118
2.49,-0.037203754792997645
2.4925,-0.00899905260630822
2.495,0.016073559813828617
2.4975,0.034950618566627366
2.5,0.04589568334422963
2.5025,0.04866739458850753
2.505,0.04441185328981122
2.5075,0.03526726870767437
2.51,0.023742833160425476
2.5125,0.012023369850365234
2.515,0.0014065613526215892
2.5175,-0.007953626118579889
2.52,-0.01694312760556676
2.5225,-0.02710454978141941
2.525,-0.04013168571376492
2.5275,-0.05739741571062953
2.53,-0.07961675865405034
2.5325,-0.1066673654745272
2.535,-0.1375107238688754
2.5375,-0.17012359053305515
2.54,-0.20140581023363563
2.5425,-0.22716583619142658
2.545,-0.24239236319589805
2.5475,-0.24196100225279468
2.55,-0.22168164376854418
2.5525,-0.17932883306863293
2.555,-0.11520888900056184
2.5575,-0.03195402415884927
2.56,0.06649144145226404
2.5625,0.17642630081287633
2.565,0.29598308786767713
2.5675,0.4261506710220323
2.57,0.5707378255506593
2.5725,0.7351226563799006
2.575,0.9241049621950695
2.5775,1.139592363055121
2.58,1.3789847305228204
2.5825,1.634877052057954
2.585,1.8961916885246766
2.5875,2.1503298587567627
2.59,2.3856285981318086
2.5925,2.593410482848334
2.595,2.769149951288803
2.5975,2.9126045103839355
2.6,3.0270420108782212
2.6025,3.117867514866007
2.605,3.1910103302448736
2.6075,3.251421317333397
2.61,3.301994116012738
2.6125,3.343142235045702
2.615,3.3731028985809823
2.6175,3.388831334404279
2.62,3.387185718434152
2.6225,3.366051191051049
2.625,3.3251114511784134
2.6275,3.266095887299034
2.63,3.1924558662373324
2.6325,3.1085469878749152
2.635,3.0185253604730646
2.6375,2.9252630115461993
2.64,2.8295725415910917
2.6425,2.7299041860663764
2.645,2.622536922263566
2.6475,2.502204032303256
2.65,2.3630614861164196
2.6525,2.1998876837849437
2.655,2.009377612289667
2.6575,1.791344698857907
2.66,1.5495591580938977
2.6625,1.2918898959987895
2.665,1.0294950427059693
2.6675,0.7750707892204304
2.67,0.5405107178762004
2.6725,0.33457915304366953
2.675,0.16126509067030986
2.6775,0.019339392569656833
2.68,-0.0966906627826923
2.6825,-0.1944717634357109
2.685,-0.28118958913203823
2.6875,-0.36131661841428336
2.69,-0.4354925847551872
2.6925,-0.5008878968103476
2.695,-0.5528343336299699
2.6975,-0.5870529006450684
2.7,-0.6016420764899061
2.7025,-0.598142545576029
2.705,-0.5813854726660234
2.7075,-0.5582997378527709
2.71,-0.5362036197016996
2.7125,-0.5211994664275904
2.715,-0.517127272954575
2.7175,-0.5252393429401987
2.72,-0.5444843233793255
2.7225,-0.5721369039682268
2.725,-0.6045105412013897
2.7275,-0.637602603726951
2.73,-0.6676504708940093
2.7325,-0.6916425280338884
2.735,-0.707817980899214
2.7375,-0.7161373606036351
2.74,-0.7186298277797863
2.7425,-0.7194348855802075
2.745,-0.7243101389335749
2.7475,-0.7394583743513007
2.75,-0.7697695951755082
2.7525,-0.8169002341174549
2.755,-0.8778558413711816
2.7575,-0.9447393922654319
2.76,-1.0060226192496347
2.7625,-1.0491976916692247
2.765,-1.0641637806941615
2.7675,-1.046369839171079
2.77,-0.9986905159532965
2.7725,-0.9313284758487781
2.775,-0.8596642881196285
2.7775,-0.800670027506589
2.78,-0.768945917198979
2.7825,-0.7734748905485843
2.785,-0.8158944236974797
2.7875,-0.8906259420649356
2.79,-0.9867096382293533
2.7925,-1.090762199034812
2.795,-1.1902094706515798
2.7975,-1.275936001081397
2.8,-1.3437460280605094
2.8025,-1.3944316399013792
2.805,-1.4326215457427371
2.8075,-1.4648292006446049
2.81,-1.497234325533569
2.8125,-1.5337600452977733
2.815,-1.5749430213161242
2.8175,-1.6178951928159768
2.82,-1.6573428685864287
2.8225,-1.687409097339784
2.825,-1.7035854628160638
2.8275,-1.7042662476585027
2.83,-1.6913145460470458
2.8325,-1.6694130744594895
2.835,-1.6443688108795596
2.8375,-1.6209399762042416
2.84,-1.6009696537737643
2.8425,-1.5825488835162391
2.845,-1.5605953265350072
2.8475,-1.5287218445953488
2.85,-1.4817710499444339
2.8525,-1.418109114397522
2.855,-1.3408207821088796
2.8575,-1.257313044307018
2.86,-1.177387752890049
2.8625,-1.1103889049936329
2.865,-1.0623719036868593
2.8675,-1.0342413020330252
2.87,-1.0214482643272071
2.8725,-1.0152843287752664
2.875,-1.0052984047412128
2.8775,-0.9820785707267031
2.88,-0.9396237248040002
2.8825,-0.8767298894374113
2.885,-0.7971264130817634
2.8875,-0.7084048738181651
2.89,-0.6200341245531925
2.8925,-0.5409559587382464
2.895,-0.4773869170861029
2.8975,-0.4314282853508505
2.9,-0.40085097625779204
2.9025,-0.3800412625822216
2.905,-0.3617353862823993
2.9075,-0.338987402838486
2.91,-0.3068394181736315
2.9125,-0.2633233504147191
2.915,-0.20963532655759504
2.9175,-0.1495486222049289
2.92,-0.08832782079128634
2.9225,-0.0315036481431507
2.925,0.01617593517060326
2.9275,0.051443748287448264
2.93,0.0728311549190971
2.9325,0.08065219011240948
2.935,0.07670200272093251
2.9375,0.06371091308376592
2.94,0.04464496417579016
2.9425,0.022027029583934564
2.945,-0.00251386974789288
2.9475,-0.028317085359069114
2.95,-0.055365993510192724
2.9525,-0.08368295697809615
2.955,-0.1126750234293194
2.9575,-0.1406986080231744
2.96,-0.16503692903276612
2.9625,-0.18232944386009084
2.965,-0.18934682540809822
2.9675,-0.1839295146563449
2.97,-0.16588622709954456
2.9725,-0.1376359889792662
2.975,-0.10437111531712481
2.9775,-0.07355895811083885
2.98,-0.05371245630977731
2.9825,-0.05252955877685023
2.985,-0.07470962905914594
2.9875,-0.11998254838670258
2.99,-0.1820536601756948
2.9925,-0.24911057929997596
2.995,-0.3061309023110108
2.9975,-0.3385636217185311
3.0,-0.3363471433659161
3.0025,-0.2969898856812727
3.005,-0.22666843849893248
3.0075,-0.13887938773680328
3.01,-0.050941929679513116
3.0125,0.020615602596232983
3.015,0.06432017025460272
3.0175,0.07631741698746505
3.02,0.06053256217936817
3.0225,0.026610773433615325
3.025,-0.013467501242607075
3.0275,-0.048906549384353515
3.03,-0.07270158495061044
3.0325,-0.08272918254282922
3.035,-0.08129288355415462
3.0375,-0.07358596760364494
3.04,-0.06576395215950193
3.0425,-0.06324262827162627
3.045,-0.06957151020321255
3.0475,-0.08595603326505934
3.05,-0.11131895736729619
3.0525,-0.14271371563332252
3.055,-0.17591549826909247
3.0575,-0.2060927968526401
3.06,-0.228533556098089
3.0625,-0.239397180458671
3.065,-0.23640018990038048
3.0675,-0.21929694880655728
3.07,-0.19002908947478456
3.0725,-0.15246746930273541
3.075,-0.11174166356839693
3.0775,-0.07325254959871896
3.08,-0.04157896156744274
3.0825,-0.019564627734693574
3.085,-0.00784928469404781
3.0875,-0.004974338465704866
3.09,-0.008005970870325627
3.0925,-0.01347264056008604
3.095,-0.018356935044558813
3.0975,-0.020892126475403887
3.1,-0.020971060802628522
3.1025,-0.02008044059773625
3.105,-0.020797495459057565
3.1075,-0.025977556337416434
3.11,-0.037815953578466774
3.1125,-0.05701497070587335
3.115,-0.08230959147586465
3.1175,-0.11054352576681042
3.12,-0.13732482099571355
3.1225,-0.1581033584779484
3.125,-0.16939620585818982
3.1275,-0.1698646680818009
3.13,-0.1609761563308529
3.1325,-0.1470413325105032
3.135,-0.13452674293741868
3.1375,-0.13071167390641256
3.14,-0.14193570053587767
3.1425,-0.17181371126201525
3.145,-0.21985630657607713
3.1475,-0.28091158221884804
3.15,-0.3457081534676583
3.1525,-0.402523437018072
3.155,-0.43969461947347144
3.1575,-0.4484337427667852
3.16,-0.4252566304581357
3.1625,-0.373308492749845
3.165,-0.30202896729314516
3.1675,-0.22501348399856047
3.17,-0.1565275724661966
3.1725,-0.1076767463443354
3.175,-0.08346351262685783
3.1775,-0.08174576534880684
3.18,-0.09449774982942544
3.1825,-0.1109719331033651
3.185,-0.12166928802392166
3.1875,-0.12172349058812666
3.19,-0.11251038640889449
3.1925,-0.10092666295416891
3.195,-0.0966153908997301
3.1975,-0.10815968588722387
3.2,-0.1396388179401656
3.2025,-0.18877873090061978
3.205,-0.2472867406993523
3.2075,-0.3031208320622043
3.21,-0.34377690526017046
3.2125,-0.3594360856301059
3.215,-0.3450205180072761
3.2175,-0.3006936516163929
3.22,-0.23088681285431395
3.2225,-0.14235550348965426
3.225,-0.04196289005767991
3.2275,0.06515774526372217
3.23,0.176635349152273
3.2325,0.2929757519291248
3.235,0.4169405948727853
3.2375,0.5525382711433882
3.24,0.7039590022868212
3.2425,0.8746447158115066
3.245,1.0665439023712793
3.2475,1.279552088731495
3.25,1.5111669648204467
3.2525,1.7564228578587646
3.255,2.0081616429193123
3.2575,2.2576335255290494
3.26,2.4953235624987595
3.2625,2.71183061887696
3.265,2.898640905767255
3.2675,3.0487271797045605
3.27,3.1570078587257724
3.2725,3.2207612454984322
3.275,3.2400635755315617
3.2775,3.2181919030978468
3.28,3.161770081236812
3.2825,3.080367851940596
3.285,2.9853805989868034
3.2875,2.8882900349971963
3.29,2.7986971958845324
3.2925,2.7226801079269136
3.295,2.661981707806805
3.2975,2.6142802864498633
3.3,2.574401767913454
3.3025,2.535958261635288
3.305,2.4927601353137274
3.3075,2.4395621997052865
3.31,2.3721308765423665
3.3125,2.286967033119921
3.315,2.1810950584812288
3.3175,2.052165425030048
3.32,1.8988765943494519
3.3225,1.721527268842311
3.325,1.52240757073543
3.3275,1.3057650605787507
3.33,1.077273767500539
3.3325,0.843221936182143
3.335,0.6098185609308324
3.3375,0.3829365098312875
3.34,0.16830494375386199
3.3425,-0.028145789781286883
3.345,-0.2001984468095617
3.3475,-0.34181224972276997
3.35,-0.44815555789644734
3.3525,-0.5169342017198439
3.355,-0.5495376422882858
3.3575,-0.5515056378740792
3.36,-0.5320149427422988
3.3625,-0.5024157007331104
3.365,-0.4741528713093506
3.3675,-0.45657634231304056
3.37,-0.4551642752759877
3.3725,-0.47059106166626596
3.375,-0.49887960417505334
3.3775,-0.5326107715709572
3.38,-0.5628955038314064
3.3825,-0.5816416698631179
3.385,-0.5836083604235639
3.3875,-0.5678062762831304
3.39,-0.537935980793355
3.3925,-0.5017441029502652
3.395,-0.4694047778287212
3.3975,-0.4512548055118466
3.4,-0.4553772746232491
3.4025,-0.485603303619742
3.405,-0.5404518836947788
3.4075,-0.613333103284044
3.41,-0.694017475798495
3.4125,-0.7709969223619995
3.415,-0.8340674509646336
3.4175,-0.8763969187333027
3.42,-0.8955490604310049
3.4225,-0.89331526382927
3.425,-0.8745954295457252
3.4275,-0.8458450970445194
3.43,-0.8136903045376951
3.4325,-0.7841557982466087
3.435,-0.762592731316521
3.4375,-0.7539961365618476
3.44,-0.7631765493433283
3.4425,-0.7943025654370944
3.445,-0.8496485556176568
3.4475,-0.9278638204301964
3.45,-1.0225298925534727
3.4525,-1.121932433557989
3.455,-1.2106745575372577
3.4575,-1.2730682859310685
3.46,-1.2974524267029668
3.4625,-1.2800554142023848
3.465,-1.2269967250677158
3.4675,-1.1535389428547371
3.47,-1.0805930939243582
3.4725,-1.0294239314609293
3.475,-1.0161408229446358
3.4775,-1.0476384695748682
3.48,-1.120142501201515
3.4825,-1.2206397560693727
3.485,-1.3305896252048033
3.4875,-1.4307263764767972
3.49,-1.5055893978530728
3.4925,-1.54661332171911
3.495,-1.5530881336943894
3.4975,-1.530965832171778
3.5,-1.4901607861684767
3.5025,-1.441401003272649
3.505,-1.3936636057328748
3.5075,-1.3528282099713875
3.51,-1.3216354862021673
3.5125,-1.3005736296677597
3.515,-1.2890649691378575
3.5175,-1.2863279949006585
3.52,-1.2915193165307317
3.5225,-1.3031369787058709
3.525,-1.3180656438569422
3.5275,-1.330893562068674
3.53,-1.3340687278265373
3.5325,-1.31906974677002
3.535,-1.2782598815862698
3.5375,-1.2067862882953675
3.54,-1.1039238483217257
3.5425,-0.9735190256462002
3.545,-0.823474847304401
3.5475,-0.6644705637572039
3.55,-0.508312098753428
3.5525,-0.36636609194650116
3.555,-0.2483638533618575
3.5575,-0.16156966088621816
3.56,-0.11010789942468369
3.5625,-0.0942809965399453
3.565,-0.10995786966574865
3.5675,-0.1483970862466481
3.57,-0.19696155967849394
3.5725,-0.2409507614005742
3.575,-0.2663193674207616
3.5775,-0.26263518628775095
3.58,-0.22546502117195244
3.5825,-0.1574877286188114
3.585,-0.06794269333309624
3.5875,0.02952944700454305
3.59,0.12009207040363162
3.5925,0.1910350553654588
3.595,0.23426783416397634
3.5975,0.24738662635975797
3.6,0.2332320910473207
3.6025,0.19829374758455134
3.605,0.1505751761130502
3.6075,0.0975921625536405
3.61,0.04504176005605992
3.6125,-0.003601741829785669
3.615,-0.04663840976883477
3.6175,-0.0831875330465931
3.62,-0.1122141342807735
3.6225,-0.13200234801949529
3.625,-0.14034019065775025
3.6275,-0.13535250059193735
3.63,-0.11659866494131525
3.6325,-0.08589699443836614
3.635,-0.0474252623015032
3.6375,-0.006932494510523968
3.64,0.02973520709448287
3.6425,0.05827448412770657
3.645,0.07707880623740229
3.6475,0.08741023670209393
3.65,0.09249974004245662
3.6525,0.09595282497214325
3.655,0.10012595154407054
3.6575,0.10512554380863846
3.66,0.10879827914484415
3.6625,0.10767310361536571
3.665,0.09846105634691618
3.6675,0.07954432486706964
3.67,0.051919556438841184
3.6725,0.0192658487807438
3.675,-0.012877079655002524
3.6775,-0.03850807980702375
3.68,-0.052629671681915555
3.6825,-0.05231047023753992
3.685,-0.0371373090750972
3.6875,-0.00914487885300423
3.69,0.02755819314259162
3.6925,0.0673182922181483
3.695,0.10361520016232158
3.6975,0.12995736244309353
3.7,0.1410178638751547
3.7025,0.13390074637876145
3.705,0.10924871933943318
3.7075,0.07175673257703144
3.71,0.02966706896029689
3.7125,-0.006910977742500846
3.715,-0.02855142312520901
3.7175,-0.029199337208483275
3.72,-0.008104928768868256
3.7225,0.029700078996172566
3.725,0.0746368672813616
3.7275,0.11521291524153966
3.73,0.1412364917769312
3.7325,0.14654420717162633
3.735,0.1303363270759764
3.7375,0.09676512147359712
3.74,0.05310474612804247
3.7425,0.007317040837559752
3.745,-0.03407413570944564
3.7475,-0.06715494568688656
3.75,-0.09066950400100036
3.7525,-0.10524918480438324
3.755,-0.1124029901816079
3.7575,-0.11379653615451987
3.76,-0.11102596997037972
3.7625,-0.10573229330168583
3.765,-0.09972541482381142
3.7675,-0.0948481931963559
3.77,-0.09251110826014557
3.7725,-0.09305397638827083
3.775,-0.09526533240944662
3.7775,-0.09642814487624748
3.78,-0.0930779870162221
3.7825,-0.0822908089146955
3.785,-0.06298292303798131
3.7875,-0.036660381525707726
3.79,-0.007330553547561499
3.7925,0.019343556260154233
3.795,0.037346050641451765
3.7975,0.04173003789131593
3.8,0.02985568530548312
3.8025,0.0021832893006847134
3.805,-0.037568057448768837
3.8075,-0.08296406366068403
3.81,-0.12602744884051484
3.8125,-0.15883623864787952
3.815,-0.17523288844551577
3.8175,-0.1722452522545991
3.82,-0.15082089753526123
3.8225,-0.1156179599498592
3.825,-0.07386398906899756
3.8275,-0.03358860925675389
3.83,-0.0017372174026528248
3.8325,0.017288706977925075
3.835,0.022256213711375587
3.8375,0.01475940036211723
3.84,-0.0018874383176780353
3.8425,-0.024055526160344096
3.845,-0.04894881228030458
3.8475,-0.07507140141071768
3.85,-0.10191414703045097
3.8525,-0.12911747410399657
3.855,-0.15558330999395611
3.8575,-0.17898744315540124
3.86,-0.19593290961297558
3.8625,-0.20271494843967042
3.865,-0.19643934561803744
3.8675,-0.17608498809721762
3.87,-0.14306112633334048
3.8725,-0.10093732821556438
3.875,-0.05431976939784453
3.8775,-0.007188809775388022
3.88,0.03877336707180116
3.8825,0.08533758859775296
3.885,0.13800766519367363
3.8875,0.20530034251723897
3.89,0.2971297934168594
3.8925,0.422623724332885
3.895,0.5878900191871674
3.8975,0.7943225950875757
3.9,1.0379002239465733
3.9025,1.3096289552079148
3.905,1.5969505072950447
3.9075,1.8857135179232336
3.91,2.162221256643085
3.9125,2.4149163312727966
3.915,2.635417721912978
3.9175,2.8188388766182033
3.92,2.9635146903815373
3.9225,3.07039256710988
3.925,3.142363116129572
3.9275,3.1837093656083426
3.93,3.1996925347682
3.9325,3.1961696473330936
3.935,3.1791184384041498
3.9375,3.1540121697446764
3.94,3.1250895724980743
3.9425,3.0946661513472002
3.945,3.0627056439462073
3.9475,3.0268743853909985
3.95,2.983201380391369
3.9525,2.9272771989711512
3.955,2.8557104701558425
3.9575,2.767398542315632
3.96,2.6641267555133146
3.9625,2.550142890336212
3.965,2.43067173668969
3.9675,2.3097651169360964
3.97,2.188251690121107
3.9725,2.062654859001908
3.975,1.9256851845211642
3.9775,1.7683637353811807
3.98,1.5831987609970648
3.9825,1.3673550750596297
3.985,1.1246344000375237
3.9875,0.8654431119373299
3.99,0.6046723641666125
3.9925,0.3582313510640931
3.995,0.13946710487161765
3.9975,-0.04334091802472524
4.0,-0.1877401473617695
4.0025,-0.2961705196036125
4.005,-0.37400518706030655
4.0075,-0.4275026851486428
4.01,-0.46244166326824315
4.0125,-0.48372415703086946
4.015,-0.49568974776852115
4.0175,-0.5025546932646753
4.02,-0.5084248867726485
4.0225,-0.5166877061056376
4.025,-0.5290611171056943
4.0275,-0.5449000197946453
4.03,-0.5613316595125799
4.0325,-0.5744019139700695
4.035,-0.5808667792440859
4.0375,-0.5798717227882448
4.04,-0.5737445480575342
4.0425,-0.5674821555530077
4.045,-0.5670637948416342
4.0475,-0.5772384628543443
4.05,-0.5996844442882955
4.0525,-0.6322901254114592
4.055,-0.6698190903569392
4.0575,-0.7056432728608127
4.06,-0.7338312460952772
4.0625,-0.7508189089210451
4.065,-0.7561448932533175
4.0675,-0.7521523248987257
4.07,-0.742956537444376
4.0725,-0.7332039951913097
4.075,-0.7271172882363829
4.0775,-0.7280519932926534
4.08,-0.7384336080715727
4.0825,-0.7597326959588921
4.085,-0.7922277514364872
4.0875,-0.8346097059245796
4.09,-0.8837297145258367
4.0925,-0.9347942274613156
4.095,-0.9821165075489312
4.0975,-1.0203045597207185
4.1,-1.0455940810800575
4.1025,-1.056937456737429
4.105,-1.056470492034941
4.1075,-1.0491423140474845
4.11,-1.0415715441338733
4.1125,-1.0404537928258675
4.115,-1.0509774182758613
4.1175,-1.0756787784659363
4.12,-1.1140192170224263
4.1225,-1.1627508631530497
4.125,-1.2169280143590457
4.1275,-1.271278088700223
4.13,-1.3215865971036274
4.1325,-1.3657494770555245
4.135,-1.4041951543623392
4.1375,-1.439511967239943
4.14,-1.4753525214860765
4.1425,-1.5149511512115683
4.145,-1.5597406557464242
4.1475,-1.6085040845666132
4.15,-1.6572991370578856
4.1525,-1.7001689627016843
4.155,-1.7304689837596645
4.1575,-1.742481485222506
4.16,-1.7328671775396878
4.1625,-1.7015042571762695
4.165,-1.65145686673575
4.1675,-1.5881234942667255
4.17,-1.517884284040665
4.1725,-1.446691476008674
4.175,-1.379015807008909
4.1775,-1.3174005764545789
4.18,-1.2626350329945963
4.1825,-1.2143239067915648
4.185,-1.1714956114414599
4.1875,-1.1329219440930651
4.19,-1.097015690782071
4.1925,-1.0614454800165298
4.195,-1.0228175977527627
4.1975,-0.9767995711202736
4.2,-0.9188729578199758
4.2025,-0.8455875893123258
4.205,-0.7559017433803946
4.2075,-0.6520832333717941
4.21,-0.5397737785151786
4.2125,-0.4271094767654271
4.215,-0.3231018988847196
4.2175,-0.2357163752195206
4.22,-0.17020041682428627
4.2225,-0.12817741564931015
4.225,-0.10777801365297977
4.2275,-0.10467805989622747
4.23,-0.11354467159781448
4.2325,-0.129280866408251
4.235,-0.14766456937960054
4.2375,-0.16536009058180928
4.24,-0.17961029911612122
4.2425,-0.18802096336866841
4.245,-0.1886978293602686
4.2475,-0.1807104464596683
4.25,-0.16461273363841208
4.2525,-0.14268066810860605
4.255,-0.11864954790002295
4.2575,-0.0969534871325342
4.26,-0.08166371562028778
4.2625,-0.07542292991658943
4.265,-0.07867957550679343
4.2675,-0.08945064358721401
4.27,-0.1036934379178882
4.2725,-0.11618879936847633
4.275,-0.12170768021157871
4.2775,-0.11619653315957348
4.28,-0.0977505708374074
4.2825,-0.06719411743078073
4.285,-0.028135827710329003
4.2875,0.01356279389162376
4.29,0.05085832240598284
4.2925,0.07696498501789228
4.295,0.08688739182527469
4.2975,0.07869742887032988
4.3,0.05418355517006138
4.3025,0.01858615297358988
4.305,-0.02062870179415869
4.3075,-0.05566594427607947
4.31,-0.0803959546345734
4.3125,-0.09180611146798781
4.315,-0.09045927075030359
4.3175,-0.07987463413160409
4.32,-0.06513327607184147
4.3225,-0.051254507029623086
4.325,-0.04189309039982154
4.3275,-0.038710302858635505
4.33,-0.04150400596943561
4.3325,-0.04893759136132993
4.335,-0.05951558240880648
4.3375,-0.07236401370861807
4.34,-0.0874571094632961
4.3425,-0.10518462066302466
4.345,-0.12546577098882414
4.3475,-0.14684179389606822
4.35,-0.1660222222017731
4.3525,-0.1782056270097706
4.355,-0.17820848743796905
4.3575,-0.16212101859468486
4.36,-0.12896372535501024
4.3625,-0.08172714740102081
4.365,-0.02730811412309495
4.3675,0.024794191246719798
4.37,0.06471503695372918
4.3725,0.08474310844974998
4.375,0.08136893910924722
4.3775,0.056262061162528944
4.38,0.01589674650917075
4.3825,-0.030072373927007214
4.385,-0.07123997990405413
4.3875,-0.09902540032330567
4.39,-0.10870291825726777
4.3925,-0.10034542224911243
4.395,-0.07843781400003512
4.3975,-0.05031109063734168
4.4,-0.023917995173048965
4.4025,-0.005655052422857479
4.405,0.0011410720925382476
4.4075,-0.0033336097106123944
4.41,-0.01592443841336238
4.4125,-0.03185012437743367
4.415,-0.046310361879275654
4.4175,-0.05585045769598948
4.42,-0.05908758534523498
4.4225,-0.056649896371541164
4.425,-0.050482136371094576
4.4275,-0.04291925517233974
4.43,-0.03599538798662109
4.4325,-0.03128511761348846
4.435,-0.030252834758025583
4.4375,-0.034787726371427165
4.44,-0.047465083617292785
4.4425,-0.07115124152011966
4.445,-0.10785487691561103
4.4475,-0.15714963548239538
4.45,-0.2148650540518117
4.4525,-0.2728247412096439
4.455,-0.3200857862219813
4.4575,-0.3455205511541972
4.46,-0.3409806266286423
4.4625,-0.3039881396631918
4.465,-0.23902570198204617
4.4675,-0.15694880218826365
4.47,-0.07263512950260342
4.4725,-0.0015322125317641586
4.475,0.043888975988607824
4.4775,0.05674571960971215
4.48,0.03673746393828207
4.4825,-0.010561500633757418
4.485,-0.07561017472894477
4.4875,-0.14722538972023894
4.49,-0.2146470532730818
4.4925,-0.26901164586020954
4.495,-0.3042200125717941
4.4975,-0.31732194646940376
4.5,-0.30851909701663177
4.5025,-0.280833249523303
4.505,-0.2394776050481816
4.5075,-0.1909907356727949
4.51,-0.14222245542931142
4.5125,-0.09931269275031708
4.515,-0.06686330276949184
4.5175,-0.04749115969719708
4.52,-0.04183103026727371
4.5225,-0.04890029664374681
4.525,-0.06663694318606384
4.5275,-0.0923940292243844
4.53,-0.12319972505934648
4.5325,-0.15568458346732156
4.535,-0.18574236060393667
4.5375,-0.20816073818971753
4.54,-0.2165247871119603
4.5425,-0.2036037836803764
4.545,-0.16222782181819112
4.5475,-0.08644678781025777
4.55,0.027368598072298588
4.5525,0.17981687098002558
4.555,0.3683260647454754
4.5575,0.5875451540047906
4.56,0.8300815828755147
4.5625,1.0873911302326016
4.565,1.3506937560099856
4.5675,1.6118260789828192
4.57,1.8639154667239475
4.5725,2.101739905971804
4.575,2.321700469235028
4.5775,2.5214719115656834
4.58,2.6995273006450513
4.5825,2.854772325059664
4.585,2.9864395958409022
4.5875,3.094218668452482
4.59,3.1784509345011305
4.5925,3.2402143167085233
4.595,3.281244462131048
4.5975,3.303758182888898
4.6,3.3102653945176046
4.6025,3.3033906144877254
4.605,3.2856567313549285
4.6075,3.2591903316862076
4.61,3.225394823459847
4.6125,3.1847244782832402
4.615,3.136691847097419
4.6175,3.0801432502796713
4.62,3.013706120046123
4.6225,2.9362257519466404
4.625,2.847008787539204
4.6275,2.7457650858342415
4.63,2.6322601067951537
4.6325,2.505838851132644
4.635,2.3651050289534097
4.6375,2.208027809872096
4.64,2.0325555781978895
4.6425,1.8375426473909904
4.645,1.6236125873616032
4.6475,1.3935948708017358
4.65,1.1523618877980653
4.6525,0.9061552837433176
4.655,0.6616994135363218
4.6575,0.42546550348395407
4.66,0.20334097532040415
4.6625,0.0007142320053766235
4.665,-0.177280439034504
4.6675,-0.32575082719222276
4.67,-0.4405656025419925
4.6725,-0.5194012842385092
4.675,-0.5629751929249723
4.6775,-0.5759293784844334
4.68,-0.5668555947381491
4.6825,-0.547167037620136
4.685,-0.5288941522655638
4.6875,-0.5219405398746141
4.69,-0.5316859498380133
4.6925,-0.5578188061664269
4.695,-0.5948504905442796
4.6975,-0.6341236407792975
4.7,-0.6666135406172932
4.7025,-0.6856337647160233
4.705,-0.6886731583016505
4.7075,-0.6778906931944747
4.71,-0.6591856145606118
4.7125,-0.6401790461436788
4.715,-0.6277888538115728
4.7175,-0.6262084643180159
4.72,-0.6359225754714288
4.7225,-0.6539755375598505
4.725,-0.6752583079946787
4.7275,-0.6942993333717509
4.73,-0.7069973200853786
4.7325,-0.7118491348067096
4.735,-0.7104081581481336
4.7375,-0.7069071649962653
4.74,-0.7071724343799163
4.7425,-0.7171140287748191
4.745,-0.7411684493206473
4.7475,-0.7810747187111012
4.75,-0.8352891494674388
4.7525,-0.8992068424714841
4.755,-0.9661696126120994
4.7575,-1.02901915098451
4.76,-1.0817682770552444
4.7625,-1.120910696308074
4.765,-1.1460210481934923
4.7675,-1.1595590453335303
4.77,-1.1660524203108764
4.7725,-1.1709723263646878
4.775,-1.1796061307535846
4.7775,-1.1961405298427585
4.78,-1.2230642042362112
4.7825,-1.2609168383084046
4.785,-1.308367570381665
4.7875,-1.3626064052629432
4.79,-1.4200359238170408
4.7925,-1.4771831913553573
4.795,-1.5315975114885299
4.7975,-1.582372553888326
4.8,-1.629994946186421
4.8025,-1.6755067501198346
4.805,-1.7193141079907115
4.8075,-1.7601677499503736
4.81,-1.794789956109088
4.8125,-1.8183772281677975
4.815,-1.8258857931614658
4.8175,-1.8137202183093297
4.82,-1.7812756752252101
4.8225,-1.7317859799710762
4.825,-1.6721148631973566
4.8275,-1.6114430232513344
4.83,-1.559146542801293
4.8325,-1.5224327011835723
4.835,-1.5044137866847234
4.8375,-1.5031981446832103
4.84,-1.5122746586267246
4.8425,-1.5220771757165956
4.845,-1.5222825820933774
4.8475,-1.5042097457451735
4.85,-1.4626809309551736
4.8525,-1.396883135191522
4.855,-1.3100736160254163
4.8575,-1.2083107068675336
4.86,-1.0986561890278097
4.8625,-0.9874215636331557
4.865,-0.8789827783398378
4.8675,-0.7754749224230392
4.87,-0.6773668637989783
4.8725,-0.5846069268319666
4.875,-0.4978232934250336
4.8775,-0.4190350144547614
4.88,-0.35151600085576284
4.8825,-0.2988079481784198
4.885,-0.26325588537867806
4.8875,-0.24466497451384892
4.89,-0.23965300392721992
4.8925,-0.2420321065641859
4.895,-0.2441945768940459
4.8975,-0.23910916665618484
4.9,-0.22227638146104572
4.9025,-0.19295779040765254
4.905,-0.1542250152242799
4.9075,-0.11179638441533712
4.91,-0.07208211761476771
4.9125,-0.04015630157159686
4.915,-0.01838722868938725
4.9175,-0.006180046933499739
4.92,-0.0008365076173030802
4.9225,0.0008964643875452151
4.925,0.0012659374330212375
4.9275,0.0005955100872270526
4.93,-0.0026121319885243697
4.9325,-0.010617673664046097
4.935,-0.024928852423690268
4.9375,-0.04504154352766698
4.94,-0.06804825599850652
4.9425,-0.08934306130571626
4.945,-0.10417965715883035
4.9475,-0.10948045207252945
4.95,-0.10517946327567057
4.9525,-0.09453778835514592
4.955,-0.08324042886201873
4.9575,-0.07753942787793731
4.96,-0.0820726642906456
4.9625,-0.09811143413635036
4.965,-0.12284387488168659
4.9675,-0.14996667440947006
4.97,-0.1714427303328138
4.9725,-0.17989801279102136
4.975,-0.17091181117055804
4.9775,-0.1444990672150804
4.98,-0.10535599651890845
4.9825,-0.06180387142169019
4.985,-0.023703315171420797
4.9875,0.0001324030220214837
4.99,0.004353990833818028
4.9925,-0.01134323324289608
4.995,-0.04196437626851828
4.9975,-0.07843498666659932
5.0,-0.11000054936096032
5.0025,-0.127106287834209
5.005,-0.12389337372982441
5.0075,-0.09961708365467573
5.01,-0.058681840087367675
5.0125,-0.00938950680594684
5.015,0.038203532575436336
5.0175,0.07473778409043712
5.02,0.09367153113419853
5.0225,0.09255126879690076
5.025,0.0731842206220122
5.0275,0.040784919260414935
5.03,0.002429657296870907
5.0325,-0.03470235360878231
5.035,-0.06482822011964502
5.0375,-0.08447469529005328
5.04,-0.09268886615255661
5.0425,-0.09062540655416491
5.045,-0.08075374515429677
5.0475,-0.06603355470031472
5.05,-0.049369652947825304
5.0525,-0.03345066039091331
5.055,-0.020825578778207735
5.0575,-0.013951679203586014
5.06,-0.015008165411003247
5.0625,-0.025437889185263976
5.065,-0.04535716201238765
5.0675,-0.07309314591402151
5.07,-0.10511882034011448
5.0725,-0.13653827373230804
5.075,-0.16207077272164852
5.0775,-0.17728065968008974
5.08,-0.1796966914574709
5.0825,-0.16950275249027316
5.085,-0.14962242774500173
5.0875,-0.12518141932145654
5.09,-0.10246744918030157
5.0925,-0.08761307041462203
5.095,-0.08528852575860188
5.0975,-0.09767996346936543
5.1,-0.12394977246656064
5.1025,-0.16027783202398527
5.105,-0.20049545310672842
5.1075,-0.23723426837171024
5.11,-0.2633975143571028
5.1125,-0.27363821214580747
5.115,-0.2654687952134475
5.1175,-0.2397027732331773
5.12,-0.20013566849220615
5.1225,-0.15261203216951252
5.125,-0.10378504624308188
5.1275,-0.05990893939119815
5.13,-0.025936653629883972
5.1325,-0.005067605767849416
5.135,0.001264931850980937
5.1375,-0.006885904331259626
5.14,-0.028349765677564774
5.1425,-0.0611399791654575
5.145,-0.10261917707460014
5.1475,-0.14953504444868332
5.15,-0.1979806554854665
5.1525,-0.24338535712159098
5.155,-0.28068521070923874
5.1575,-0.3048094985891764
5.16,-0.3115247189443743
5.1625,-0.2985248720291344
5.165,-0.2665048080728856
5.1675,-0.21985765950424846
5.17,-0.16663303638710583
5.1725,-0.11750308853036451
5.175,-0.08372452551807642
5.1775,-0.07442791107144797
5.18,-0.09390536726202968
5.1825,-0.13975152531339174
5.185,-0.2026074329615607
5.1875,-0.2678201437868241
5.19,-0.3186752320576541
5.1925,-0.3402552805777344
5.195,-0.3227217459292885
5.1975,-0.2630433911118841
5.2,-0.16477596034224587
5.2025,-0.0361541496318022
5.205,0.11274997791253298
5.2075,0.27283278928321614
5.21,0.4378667831775971
5.2125,0.6050628351879644
5.215,0.7744182066711395
5.2175,0.9474509243457235
5.22,1.1260349362874857
5.2225,1.3117731953380152
5.225,1.5058890189566783
5.2275,1.709283094069099
5.23,1.9223737894712412
5.2325,2.1445685109789223
5.235,2.3735134070412585
5.2375,2.604457782020739
5.24,2.8300835837355947
5.2425,3.041028617141967
5.245,3.2271291513003773
5.2475,3.3791523162149835
5.25,3.4905482543325
5.2525,3.558665947260521
5.255,3.5850455048888916
5.2575,3.5747572134041437
5.26,3.5351079680412707
5.2625,3.4742086888800037
5.265,3.3998429847177944
5.2675,3.318850092261178
5.27,3.2369412239575275
5.2725,3.1586516442316306
5.275,3.0871187814345773
5.2775,3.0235760032164887
5.28,2.966721576918173
5.2825,2.9122959069452508
5.285,2.8532044528298037
5.2875,2.780374101801754
5.29,2.6842799633446166
5.2925,2.556810951070782
5.295,2.392964862871991
5.2975,2.191867277755991
5.3,1.956814456351947
5.3025,1.6943781217226301
5.305,1.4129435344556376
5.3075,1.1212449815358834
5.31,0.8274320928375077
5.3125,0.5389404369400793
5.315,0.26303703087120806
5.3175,0.007542419303442543
5.32,-0.2189056274249966
5.3225,-0.40748865782090615
5.325,-0.5507463279855614
5.3275,-0.644548589385432
5.33,-0.6897470041933009
5.3325,-0.6927701715822122
5.335,-0.6647554417890069
5.3375,-0.6193408799682454
5.34,-0.5697791071349269
5.3425,-0.5263360476093675
5.345,-0.4948350075486535
5.3475,-0.47672798580134046
5.35,-0.47045529724161333
5.3525,-0.4733903431571038
5.355,-0.4835393635856232
5.3575,-0.5003664150825758
5.36,-0.5245143995088332
5.3625,-0.5566481875865206
5.365,-0.5960166162453342
5.3675,-0.6394790665749619
5.37,-0.6815770146603815
5.3725,-0.7157800261256865
5.375,-0.7364874623346402
5.3775,-0.741000816577453
5.38,-0.7306859395382238
5.3825,-0.7108760635359002
5.385,-0.6895206761264241
5.3875,-0.6749872488913278
5.39,-0.673692295710545
5.3925,-0.688315271430703
5.395,-0.7171743998400849
5.3975,-0.7549447837985785
5.4,-0.794439579490203
5.4025,-0.8288603947877026
5.405,-0.8538461407460208
5.4075,-0.868763933081564
5.41,-0.8769185968709868
5.4125,-0.8846628357823055
5.415,-0.8996877047774323
5.4175,-0.9289463216359943
5.42,-0.9766744611566766
5.4225,-1.0429107589169972
5.425,-1.1228823254005895
5.4275,-1.2075586732276424
5.43,-1.2854447041519599
5.4325,-1.3452717176773568
5.435,-1.3788692049234543
5.4375,-1.3833973946252183
5.44,-1.3623128490669583
5.4425,-1.324774386062854
5.445,-1.2835706050934208
5.4475,-1.2520586631745145
5.45,-1.2409653585366143
5.4525,-1.2559994825526355
5.455,-1.296934358459645
5.4575,-1.358292435882576
5.46,-1.4312741643932625
5.4625,-1.5062697227327886
5.465,-1.5751868015365713
5.4675,-1.6329289563805713
5.47,-1.6776822872029082
5.4725,-1.7101316290508841
5.475,-1.7321232080316473
5.4775,-1.7454090006283396
5.48,-1.7509093055701157
5.4825,-1.7485850037654174
5.485,-1.7377468058946528
5.4875,-1.7175426281560968
5.49,-1.6874024048954417
5.4925,-1.6473003143245402
5.495,-1.5977890723531067
5.4975,-1.5398600330897594
5.5,-1.4747473180206057
5.5025,-1.403782529401288
5.505,-1.3283323568296026
5.5075,-1.2497818064996802
5.51,-1.1695126814760368
5.5125,-1.0888554278479248
5.515,-1.0090159537858026
5.5175,-0.930986347637283
5.52,-0.8554613015134217
5.5225,-0.7827993829278034
5.525,-0.713059649841006
5.5275,-0.6461016343929046
5.53,-0.5816964553013776
5.5325,-0.5195981855868522
5.535,-0.45956756684042216
5.5375,-0.4013855739581495
5.54,-0.3448987509095138
5.5425,-0.29009630443023054
5.545,-0.23717779782364787
5.5475,-0.1865838570596092
5.55,-0.1390175040644404
5.5525,-0.09549778364016417
5.555,-0.05741023497984143
5.5575,-0.026419321445165192
5.56,-0.004113473951438521
5.5625,0.008596725687732282
5.565,0.0121132761157751
5.5675,0.008509631599454065
5.57,0.0013686780063266201
5.5725,-0.004965217963089386
5.575,-0.006568934681399392
5.5775,-0.0012229489669393972
5.58,0.010637022303670241
5.5825,0.025684835405220804
5.585,0.03836975926172801
5.5875,0.042370518166112994
5.59,0.03245622395353479
5.5925,0.006236464335990637
5.595,-0.03470556448157456
5.5975,-0.08467742464571387
5.6,-0.1348969714507878
5.6025,-0.17551408451267267
5.605,-0.19814636132153876
5.6075,-0.19820770653158484
5.61,-0.1763011526618883
5.6125,-0.138196852837442
5.615,-0.09334003937260038
5.6175,-0.05228835234729912
5.62,-0.023822440382632697
5.6225,-0.012596540988969814
5.625,-0.0180401125043163
5.6275,-0.03482461739428479
5.63,-0.05470477449935185
5.6325,-0.06910714905694137
5.635,-0.07162550427687805
5.6375,-0.05967461414984936
5.64,-0.034909537676047674
5.6425,-0.002459557604193995
5.645,0.0306454153077711
5.6475,0.057350264124332195
5.65,0.07228202610101657
5.6525,0.07294197574524713
5.655,0.060179986991677537
5.6575,0.037884158179412326
5.66,0.011961889575319783
5.6625,-0.011142324205333778
5.665,-0.026008224257928928
5.6675,-0.029480145834819633
5.67,-0.021303079198449006
5.6725,-0.0040379199651514475
5.675,0.017704648815944173
5.6775,0.03852059185850601
5.68,0.053626490014295744
5.6825,0.06003437631451528
5.685,0.05716521230444017
5.6875,0.04676294257097874
5.69,0.032179146597705564
5.6925,0.017271916133682966
5.695,0.005273517926916758
5.6975,-0.0020130282199109996
5.7,-0.004456424721690429
5.7025,-0.0032634452115361465
5.705,-0.00026628788436487623
5.7075,0.002843959829348076
5.71,0.005020706742533809
5.7125,0.005936374122632643
5.715,0.005681885730601904
5.7175,0.004310469426283131
5.72,0.0014873490708071987
5.7225,-0.0035582156439626384
5.725,-0.011713460425582257
5.7275,-0.02339840576712179
5.73,-0.03797773364277719
5.7325,-0.053488766443608164
5.735,-0.06690628989673562
5.7375,-0.07493335726575212
5.74,-0.07506560432937703
5.7425,-0.06654798618002129
5.745,-0.05085999327523227
5.7475,-0.03149272496654035
5.75,-0.013001499504260666
5.7525,0.00038362418469432597
5.755,0.006046244327660085
5.7575,0.0036007563106584136
5.76,-0.00544072137486383
5.7625,-0.018768510605828462
5.765,-0.034593577457792714
5.7675,-0.052546649084320954
5.77,-0.07372390816676475
5.7725,-0.09983595907629296
5.775,-0.1318385864234339
5.7775,-0.16868891560104965
5.78,-0.20683031719771855
5.7825,-0.2406777135991712
5.785,-0.2639489941550308
5.7875,-0.2713822455448485
5.79,-0.2602692273418313
5.7925,-0.2313056071839568
5.795,-0.18848983429650365
5.7975,-0.13813856545114125
5.8,-0.08738784060153978
5.8025,-0.042681391512762776
5.805,-0.008678453344401113
5.8075,0.01219951757377825
5.81,0.01962623379862598
5.8125,0.01487959042034611
5.815,0.00030697600630618104
5.8175,-0.021056920186737965
5.82,-0.0457183931600028
5.8225,-0.0699456824436025
5.825,-0.09013665156495956
5.8275,-0.10336630689282138
5.83,-0.10799179259638095
5.8325,-0.10409168971221647
5.835,-0.09351237670507677
5.8375,-0.07940278572899187
5.84,-0.0653158639062438
5.8425,-0.05413917294993647
5.845,-0.04717606428440702
5.8475,-0.043618317139509796
5.85,-0.0404994964130163
5.8525,-0.03306578715679288
5.855,-0.015404894193212443
5.8575,0.018828535425272824
5.86,0.07568941381935348
5.8625,0.160271723507251
5.865,0.27615179127992734
5.8675,0.42503362106789006
5.87,0.6066686631625161
5.8725,0.8190499397271183
5.875,1.0587904471711198
5.8775,1.3215292246255763
5.88,1.6021822391615985
5.8825,1.8948912057027343
5.885,2.192655146946868
5.8875,2.4868398721812075
5.89,2.766945756533507
5.8925,3.021044818360535
5.895,3.2371098575025967
5.8975,3.4050955239791687
5.9,3.5192378392808523
5.9025,3.5798044875136807
5.905,3.5935945308188377
5.9075,3.5728586487109797
5.91,3.53283725017952
5.9125,3.4885598792601127
5.915,3.4517438175464057
5.9175,3.4285590965949764
5.92,3.4187799921879005
5.9225,3.416489606634955
5.925,3.4120913821965657
5.9275,3.395020149005545
5.93,3.356386995398726
5.9325,3.2908872580613884
5.935,3.1975591760113367
5.9375,3.0792958330650766
5.94,2.9413428144826756
5.9425,2.7893065905560226
5.945,2.6273349798376975
5.9475,2.457024508947296
5.95,2.277319531396429
5.9525,2.0853486895839777
5.955,1.8779044018080304
5.9575,1.6531299431131001
5.96,1.4119302675658352
5.9625,1.1586827458552917
5.965,0.9010075458786693
5.9675,0.6486347360611012
5.97,0.41168508804690335
5.9725,0.19884679730487986
5.975,0.01592310055865024
5.9775,-0.13490610410779863
5.98,-0.25494526403477225
5.9825,-0.3480189894773608
5.985,-0.4189931981415762
5.9875,-0.4723120513666046
5.99,-0.5111100206500238
5.9925,-0.5372112862705175
5.995,-0.5518993626972785
5.9975,-0.5569665576602559
6.0,-0.5554481228202982
6.0025,-0.5516424774592145
6.005,-0.5503754215679761
6.0075,-0.5557955589218768
6.01,-0.5701680144534222
6.0125,-0.5931335892442947
6.015,-0.6217457759067193
6.0175,-0.6513292117503203
6.02,-0.6768897570191358
6.0225,-0.6945794326566938
6.025,-0.702711978046403
6.0275,-0.7020389832447794
6.03,-0.6952860871829091
6.0325,-0.6861668437275147
6.035,-0.6782030894303137
6.0375,-0.6737118342141916
6.04,-0.6732703891295458
6.0425,-0.6758242463416384
6.045,-0.6793882994288515
6.0475,-0.6821070784148979
6.05,-0.6833550709932446
6.0525,-0.6845590478152215
6.055,-0.689467395968968
6.0575,-0.7036759415832665
6.06,-0.73337126517849
6.0625,-0.7834792827723832
6.065,-0.8556742387470837
6.0675,-0.9469097842076623
6.07,-1.0491288711037359
6.0725,-1.1504984984115116
6.075,-1.237979118086261
6.0775,-1.3005183447440192
6.08,-1.331892191990666
6.0825,-1.3322961792060932
6.085,-1.3081740040065626
6.0875,-1.2703503807967544
6.09,-1.2311115407928725
6.0925,-1.2012098850861423
6.095,-1.1877140141644535
6.0975,-1.1932299142803946
6.1,-1.21647497901302
6.1025,-1.253722789726407
6.105,-1.300429880538381
6.1075,-1.3524560007905977
6.11,-1.406596543673297
6.1125,-1.460486075302101
6.115,-1.5121713983087426
6.1175,-1.55973431435288
6.12,-1.601257572794039
6.1225,-1.6352035024678826
6.125,-1.6610097739578848
6.1275,-1.6795364732722013
6.13,-1.6930181257551622
6.1325,-1.7043788163442382
6.135,-1.7160605609365898
6.1375,-1.7287602020964532
6.14,-1.7405684473341247
6.1425,-1.746924482126497
6.145,-1.7415544035956467
6.1475,-1.7182029399616652
6.15,-1.67262322712401
6.1525,-1.6041402401480938
6.155,-1.5162481685193474
6.1575,-1.4160537532965674
6.16,-1.3127457068410713
6.1625,-1.2155277460782041
6.165,-1.1315772881345418
6.1675,-1.0645777868557205
6.17,-1.0141985147364807
6.1725,-0.9765941296446851
6.175,-0.9456827268410498
6.1775,-0.9147594467663002
6.18,-0.8779719515106396
6.1825,-0.8313090996832508
6.185,-0.7729705569442334
6.1875,-0.7032027508167464
6.19,-0.6238189667771205
6.1925,-0.5376310147246841
6.195,-0.44794631538779284
6.1975,-0.3582020656070705
6.2,-0.2717511366982751
6.2025,-0.19176841591308366
6.205,-0.1212061076723154
6.2075,-0.06271371974981416
6.21,-0.01846565405522372
6.2125,0.0101096861386423
6.215,0.02265467781931515
6.2175,0.020173552161281326
6.22,0.005168138127364505
6.2225,-0.01850303235462454
6.225,-0.04609568557498051
6.2275,-0.07271366463607173
6.23,-0.09413004378134318
6.2325,-0.10747954840823017
6.235,-0.11165147143297484
6.2375,-0.10732777596676862
6.24,-0.0967385316166005
6.2425,-0.08325745106089971
6.245,-0.07090386600909446
6.2475,-0.06373842233934712
6.25,-0.06514280525510864
6.2525,-0.0770575159797363
6.255,-0.09933235429691828
6.2575,-0.12937168514478292
6.26,-0.16224307029298776
6.2625,-0.19137111167753806
6.265,-0.20982738691243918
6.2675,-0.2120308749426574
6.27,-0.19544137342148177
6.2725,-0.16168162798936703
6.275,-0.11658209111849473
6.2775,-0.06894229579260278
6.28,-0.028263067651204208
6.2825,-0.0021377998922175634
6.285,0.005823031296654719
6.2875,-0.0031593301586777577
6.29,-0.023646677554411823
6.2925,-0.04780150040101463
6.295,-0.0678084639241633
6.2975,-0.07818441883822316
6.3,-0.07733242900589318
6.3025,-0.06790815446092903
6.305,-0.05589126360814738
6.3075,-0.04862173529657676
6.31,-0.05235428769995299
6.3125,-0.07002255015672045
6.315,-0.09988318957228551
6.3175,-0.13553305296901372
6.32,-0.1674425005996658
6.3225,-0.18567177939408608
6.325,-0.18300108479001082
6.3275,-0.15750638477401996
6.33,-0.11373277101410682
6.3325,-0.06198637445071104
6.335,-0.01577347824343934
6.3375,0.012017857685462593
6.34,0.013089774123349142
6.3425,-0.013469018042171647
6.345,-0.06061658406431835
6.3475,-0.11531118577152917
6.35,-0.1623383018169562
6.3525,-0.18869814500755236
6.355,-0.18712746692693485
6.3575,-0.15773925011533324
6.36,-0.10745101702300387
6.3625,-0.047576857032888796
6.365,0.009511790315128126
6.3675,0.053540683291290705
6.37,0.07836898329104483
6.3725,0.08247826871045595
6.375,0.06809425846026865
6.3775,0.03957499551675205
6.38,0.0018274170559560478
6.3825,-0.04070045572137141
6.385,-0.08432037075441531
6.3875,-0.1259458471067055
6.39,-0.16287449149380873
6.3925,-0.19280255851171574
6.395,-0.2141140543769772
6.3975,-0.22625744191616284
6.4,-0.22993623007134073
6.4025,-0.22692668332706842
6.405,-0.21953450293841204
6.4075,-0.20990148876950196
6.41,-0.1994676410954191
6.4125,-0.18882840123783964
6.415,-0.17803117513758399
6.4175,-0.1671431893402711
6.42,-0.156810862966899
6.4225,-0.14855182496470096
6.425,-0.1446311113218757
6.4275,-0.14752063897805262
6.43,-0.15908937220884956
6.4325,-0.17978687913610747
6.435,-0.20812428482813086
6.4375,-0.24068528210962237
6.44,-0.27272249055913195
6.4425,-0.29918682825908954
6.445,-0.31588876142450867
6.4475,-0.32044551728327436
6.45,-0.3127409329614456
6.4525,-0.2948005090850786
6.455,-0.2701892683831196
6.4575,-0.24316651001419712
6.46,-0.2178323625257602
6.4625,-0.19742592768138556
6.465,-0.18386071734970563
6.4675,-0.17753826259191763
6.47,-0.17744790212439712
6.4725,-0.18152318466967457
6.475,-0.1871842217712126
6.4775,-0.19195525708960542
6.48,-0.19401498068454615
6.4825,-0.1925360568263148
6.485,-0.18772001508199393
6.4875,-0.18052377790421734
6.49,-0.17217204652367327
6.4925,-0.16361658742145993
6.495,-0.15509996891324745
6.4975,-0.14590310906947587
6.5,-0.1342589428865422
6.5025,-0.11736550496582898
6.505,-0.09144857051815475
6.5075,-0.051881466380215784
6.51,0.006569789764049078
6.5125,0.0892861687566532
6.515,0.2010827793559526
6.5175,0.3453305226130062
6.52,0.5231353992675631
6.5225,0.7328522302698417
6.525,0.9701206372062264
6.5275,1.2284168964766928
6.53,1.4999314700975457
6.5325,1.7765034005153841
6.535,2.0503762624593453
6.5375,2.3146419266015523
6.54,2.563369949341529
6.5425,2.791540352885053
6.545,2.9949446637309
6.5475,3.1701631161187365
6.55,3.314614818554702
6.5525,3.4266079830851552
6.555,3.5053399780191485
6.5575,3.550875116472677
6.56,3.564180797125965
6.5625,3.547275886820013
6.565,3.503444894827838
6.5675,3.437357635895212
6.57,3.354889106270536
6.5725,3.2625095456907247
6.575,3.166295695335091
6.5775,3.0708259708424794
6.58,2.9783477520610786
6.5825,2.8885364400830467
6.585,2.7989070117108756
6.5875,2.7056468195158727
6.59,2.604502293794166
6.5925,2.491427806094805
6.595,2.362900832648276
6.5975,2.2160011329282985
6.6,2.0484650960929085
6.6025,1.8589143876582237
6.605,1.6473126004074368
6.6075,1.4155060392610856
6.61,1.1676018071350933
6.6125,0.910002190000367
6.615,0.6510685887823929
6.6175,0.40049213494854613
6.62,0.16845191961893183
6.6225,-0.03539381872834099
6.625,-0.20303681043436694
6.6275,-0.3292668800330443
6.63,-0.41266139133685636
6.6325,-0.4561758133611722
6.635,-0.4670849091320206
6.6375,-0.4561126559514424
6.64,-0.4357871816303358
6.6425,-0.418300703149992
6.645,-0.41334331051927065
6.6475,-0.42643877744694736
6.65,-0.4582115743224311
6.6525,-0.5047781165118851
6.655,-0.5591542204918332
6.6575,-0.6132982184375624
6.66,-0.6602398573516441
6.6625,-0.6957220084129674
6.665,-0.7189198187855432
6.6675,-0.7320783048893206
6.67,-0.7392507243040871
6.6725,-0.7446108349079348
6.675,-0.7509440986182249
6.6775,-0.7588429584111199
6.68,-0.7668565627091335
6.6825,-0.7724653796650693
6.685,-0.7734208413241689
6.6875,-0.7688671737610249
6.69,-0.7598024981261954
6.6925,-0.7487524621507196
6.695,-0.7388662689244045
6.6975,-0.7328653107215558
6.7,-0.732292015160699
6.7025,-0.7373154232576107
6.705,-0.7470625927986111
6.7075,-0.7602296448151311
6.71,-0.7756749198335581
6.7125,-0.7927847454287763
6.715,-0.8115566826020391
6.7175,-0.8324893292850591
6.72,-0.8564297316418497
6.7225,-0.8844784247794558
6.725,-0.9179346581989014
6.7275,-0.9581755635819128
6.73,-1.0063708505318123
6.7325,-1.0630291198048907
6.735,-1.1274884670310654
6.7375,-1.1975458280756512
6.74,-1.269436679573357
6.7425,-1.3383059373258026
6.745,-1.399149637185556
6.7475,-1.4480113810078414
6.75,-1.4830825488417185
6.7525,-1.505344964212745
6.755,-1.5185074087130463
6.7575,-1.5281780977420016
6.76,-1.540429366409881
6.7625,-1.5601023839538488
6.765,-1.5893278298468454
6.7675,-1.6267464687230782
6.77,-1.6677443255910942
6.7725,-1.7056916350713551
6.775,-1.7338256438079402
6.7775,-1.7471938335637807
6.78,-1.7440387175624261
6.7825,-1.7261535195476416
6.785,-1.6980563714710268
6.7875,-1.6652629914611976
6.79,-1.6323169124783405
6.7925,-1.601339095848446
6.795,-1.571592602229949
6.7975,-1.5400811534595593
6.8,-1.5028052117534512
6.8025,-1.4561627474559706
6.805,-1.398062881491068
6.8075,-1.3284857842516005
6.81,-1.2493995377225733
6.8125,-1.16412826082002
6.815,-1.0764302724203327
6.8175,-0.9896186978292371
6.82,-0.9059906054533652
6.8225,-0.8266632425076987
6.825,-0.7517503388925563
6.8275,-0.6807350867480424
6.83,-0.6129173425860297
6.8325,-0.5478586339343166
6.835,-0.4857461930517372
6.8375,-0.42756224994215297
6.84,-0.37495867716024195
6.8425,-0.3298306948138043
6.845,-0.2937018365797717
6.8475,-0.26711520883520484
6.85,-0.24925129628332882
6.8525,-0.23794480690036604
6.855,-0.2301442715306216
6.8575,-0.2226907315687809
6.86,-0.21316833598383272
6.8625,-0.20055382945180977
6.865,-0.18545439757314128
6.8675,-0.1698374206361387
6.87,-0.1562971960503721
6.8725,-0.14705173034962607
6.875,-0.1429784487983235
6.8775,-0.14303353779405342
6.88,-0.14431604619155453
6.8825,-0.14282346886255248
6.885,-0.13466662513271047
6.8875,-0.11731867643643991
6.89,-0.0904837546078779
6.8925,-0.056354207791138644
6.895,-0.019249919796197272
6.8975,0.015206851751666976
6.9,0.04116322114535338
6.9025,0.05364738468321094
6.905,0.04955405056763488
6.9075,0.02836439742885949
6.91,-0.007528295878226332
6.9125,-0.052991496475607885
6.915,-0.10086157042617842
6.9175,-0.14312004328286568
6.92,-0.17236710720531873
6.9225,-0.18333550440307594
6.925,-0.17409993659455145
6.9275,-0.14658522233206506
6.93,-0.1060951458203568
6.9325,-0.05993034571025195
6.935,-0.015564927955359763
6.9375,0.02096176965456171
6.94,0.045925410707081726
6.9425,0.057919747105550354
6.945,0.05720549810169517
6.9475,0.044850155989735165
6.95,0.022125675710454644
6.9525,-0.009536879354695502
6.955,-0.04805285076773318
6.9575,-0.09001748609460603
6.96,-0.13042849664557257
6.9625,-0.16323949938310323
6.965,-0.18277660425653364
6.9675,-0.18556350765025229
6.97,-0.17180142391927927
6.9725,-0.14578791954468148
6.975,-0.11491313030822581
6.9775,-0.08741340650748267
6.98,-0.0696002115201276
6.9825,-0.06358819746143524
6.985,-0.06644827985605142
6.9875,-0.07121084033545383
6.99,-0.06942955045727753
6.9925,-0.05437621109873594
6.995,-0.02365575212976751
6.9975,0.019737993744257817
7.0,0.06825898884807163
7.0025,0.11212579542452479
7.005,0.14218764156533836
7.0075,0.15229605343309652
7.01,0.14044837109127026
7.0125,0.10856493953422255
7.015,0.06135392971990526
7.0175,0.004991840740125419
7.02,-0.05382293944750908
7.0225,-0.10834093123024113
7.025,-0.15206117451389295
7.0275,-0.179259272512742
7.03,-0.18590653094587511
7.0325,-0.17077292003390795
7.035,-0.1362453400168505
7.0375,-0.08837801305559458
7.04,-0.03592896897221531
7.0425,0.011474485878115684
7.045,0.04552585235121728
7.0475,0.06108656206312685
7.05,0.05709610506893412
7.0525,0.03631121057969452
7.055,0.004093447187222415
7.0575,-0.03321112585338609
7.06,-0.06971412537111112
7.0625,-0.10088498061438352
7.065,-0.1238705183435115
7.0675,-0.1374387423136448
7.07,-0.14180916507092511
7.0725,-0.1385188974509598
7.075,-0.13029923852769898
7.0775,-0.1208261404814419
7.08,-0.11421689077222878
7.0825,-0.11425498474400203
7.085,-0.12347708008942693
7.0875,-0.14237707132024646
7.09,-0.16900899872452935
7.0925,-0.19918373777637155
7.095,-0.22728573694742712
7.0975,-0.24754092507241568
7.1,-0.25540713270813836
7.1025,-0.24869865392137855
7.105,-0.22813769347480173
7.1075,-0.1972162141120561
7.11,-0.16145149349666665
7.1125,-0.12724030300506123
7.115,-0.10055708929148081
7.1175,-0.08575064538558072
7.12,-0.08468877504480841
7.1225,-0.0964453359698957
7.125,-0.11759400237926108
7.1275,-0.1430091321204251
7.13,-0.16695651026245537
7.1325,-0.184230840754317
7.135,-0.19113372932097414
7.1375,-0.18612705518488742
7.14,-0.17003251968547628
7.1425,-0.14571774240319507
7.145,-0.11732223908367186
7.1475,-0.08918432910881756
7.15,-0.06468139516766186
7.1525,-0.04518846671627751
7.155,-0.029330995065802796
7.1575,-0.012684413045167198
7.16,0.011963787136647277
7.1625,0.05375985752993195
7.165,0.12242908538014322
7.1675,0.22661280403813008
7.17,0.37215066928686363
7.1725,0.5606150387525706
7.175,0.78844664635806
7.1775,1.0469906690198751
7.18,1.3235279182036959
7.1825,1.6031196208013896
7.185,1.8708987172549072
7.1875,2.114391919067925
7.19,2.325448136159563
7.1925,2.5013279755533953
7.195,2.644578141467992
7.1975,2.7616038225279063
7.2,2.8603123606486136
7.2025,2.9475768452341455
7.205,3.02731723013234
7.2075,3.0997114666922396
7.21,3.1616181693654584
7.2125,3.2079063741202978
7.215,3.233153410699419
7.2175,3.233146049922982
7.22,3.205806515372441
7.2225,3.151462606592746
7.225,3.072627050064894
7.2275,2.9735428491920985
7.23,2.8596916033607123
7.2325,2.7373116249415492
7.235,2.612818723290558
7.2375,2.491963903700704
7.24,2.3786725041496655
7.2425,2.273779705052038
7.245,2.1741718814450084
7.2475,2.0729310098156697
7.25,1.9607964582701314
7.2525,1.8286874347908058
7.255,1.6704888210998885
7.2575,1.4851173555397872
7.26,1.2771451536546856
7.2625,1.055796176446203
7.265,0.8326923669259404
7.2675,0.6191161537767416
7.27,0.4236678280437265
7.2725,0.2509985027283692
7.275,0.10186557260641926
7.2775,-0.02573030862419471
7.28,-0.13490655215080583
7.2825,-0.22841985955238284
7.285,-0.3078572638908991
7.2875,-0.3737146444123807
7.29,-0.4262416340116115
7.2925,-0.46663476823509464
7.295,-0.49799366958778096
7.2975,-0.5254814907904922
7.3,-0.5553718953771035
7.3025,-0.5930931946116196
7.305,-0.6408784689320173
7.3075,-0.695970603948668
7.31,-0.7502875290331379
7.3125,-0.7919861328633846
7.315,-0.8086679260046737
7.3175,-0.7913305850915021
7.32,-0.7378053146961007
7.3225,-0.6544524625645426
7.325,-0.5553601145071527
7.3275,-0.459110142614505
7.33,-0.38405961224065294
7.3325,-0.34365360175829807
7.335,-0.34327531337799094
7.3375,-0.37955138446170533
7.34,-0.44212369959804454
7.3425,-0.5170676023815926
7.345,-0.59072419056038
7.3475,-0.6528346316849101
7.35,-0.6983407235706918
7.3525,-0.7277351433676955
7.355,-0.7461918629854648
7.3575,-0.761845447788686
7.36,-0.7835833568816662
7.3625,-0.8186702665790171
7.365,-0.8705459570428684
7.3675,-0.9372647506933898
7.37,-1.0111517447927576
7.3725,-1.0801141747312666
7.375,-1.1305648783464746
7.3775,-1.151269945675726
7.38,-1.1369621392613578
7.3825,-1.0905007749160016
7.385,-1.022737674578699
7.3875,-0.949958821417422
7.39,-0.8896049237966968
7.3925,-0.8556267877183157
7.395,-0.8550060088666622
7.3975,-0.8865576608465182
7.4,-0.9422877603951612
7.4025,-1.010651573004324
7.405,-1.0804212067331804
7.4075,-1.1437643218139317
7.41,-1.1975803879786675
7.4125,-1.2429243137916717
7.415,-1.2831059844994583
7.4175,-1.321453006332489
7.42,-1.3596469443611843
7.4225,-1.3971357102555233
7.425,-1.431640730321499
7.4275,-1.46039355522542
7.43,-1.4815119001525288
7.4325,-1.494897245956638
7.435,-1.5022538207558813
7.4375,-1.506239123541145
7.44,-1.5091510329342026
7.4425,-1.51172574957862
7.445,-1.5125177246760724
7.4475,-1.508061110615515
7.45,-1.493721189173226
7.4525,-1.4649446946089901
7.455,-1.4185374450290706
7.4575,-1.3536079823777372
7.46,-1.2719054354574149
7.4625,-1.1774552554896747
7.465,-1.0756196442040906
7.4675,-0.9718897969121156
7.47,-0.8707814797376845
7.4725,-0.7751497267033689
7.475,-0.6861006826065732
7.4775,-0.6034926029668413
7.48,-0.5268178574513752
7.4825,-0.45610248499677936
7.485,-0.3924208860214945
7.4875,-0.3377479680149798
7.49,-0.2941457931654064
7.4925,-0.2626053181899083
7.495,-0.24207243473634277
7.4975,-0.22915025046239001
7.5,-0.21868727356694911
7.5025,-0.20507939451231116
7.505,-0.18383047420871015
7.5075,-0.15285051642384634
7.51,-0.1130970823510413
7.5125,-0.06838446474147591
7.515,-0.02442581315635107
7.5175,0.012603192510490753
7.52,0.03755073411179833
7.5225,0.04741011096428694
7.525,0.041819109220886184
7.5275,0.022898105775944942
7.53,-0.005424738798959103
7.5325,-0.038341190966329576
7.535,-0.07106836862220639
7.5375,-0.09954157692204882
7.54,-0.12084749866097831
7.5425,-0.13345600006876035
7.545,-0.13729931441379445
7.5475,-0.13366365117620602
7.55,-0.12482841806139787
7.5525,-0.11347213302719944
7.555,-0.10198354550961497
7.5575,-0.09186784382732291
7.56,-0.08340863276422458
7.5625,-0.07568115401686241
7.565,-0.0669303675394879
7.5675,-0.05523070227916403
7.57,-0.03925465626258242
7.5725,-0.01892308261285015
7.575,0.004290029918006791
7.5775,0.02755178675895635
7.58,0.04736752938749123
7.5825,0.06059766264468858
7.585,0.06545444050972658
7.5875,0.06209579292266809
7.59,0.05256745698274573
7.5925,0.04012103509291325
7.595,0.02819655961461882
7.5975,0.019452202112018716
7.6,0.01514585720104862
7.6025,0.015023545589405149
7.605,0.01770791668072678
7.6075,0.02140871003490986
7.61,0.02464231410431345
7.6125,0.026647124654588007
7.615,0.02734572247161944
7.6175,0.026940430607016955
7.62,0.025398621778371114
7.6225,0.022114400082131894
7.625,0.01593841383695961
7.6275,0.005602023360799615
7.63,-0.009616832981770318
7.6325,-0.02926386683230299
7.635,-0.05140244484275411
7.6375,-0.07280837248902948
7.64,-0.08966293902815603
7.6425,-0.09855800825790784
7.645,-0.09750435483117942
7.6475,-0.08662254344097627
7.65,-0.06828061812442258
7.6525,-0.04657468099173146
7.655,-0.026226369333596324
7.6575,-0.011203970343166067
7.66,-0.00355266520626044
7.6625,-0.002869139428200028
7.665,-0.006560910718359847
7.6675,-0.010701423039953828
7.67,-0.011143800773837911
7.6725,-0.00459741170300834
7.675,0.010538733471016835
7.6775,0.033740776147362636
7.68,0.06242393515314126
7.6825,0.09248366437683492
7.685,0.11914015391951704
7.6875,0.1378500162534702
7.69,0.14511469416200778
7.6925,0.13910473230890727
7.695,0.12002891959982047
7.6975,0.09013949005087699
7.7,0.053286699770997786
7.7025,0.014060601063446641
7.705,-0.02327393930045012
7.7075,-0.055726213757885695
7.71,-0.08209382141789386
7.7125,-0.10286163215367888
7.715,-0.11952725311411268
7.7175,-0.13360901729609573
7.72,-0.14571932631565948
7.7225,-0.15508061201591372
7.725,-0.15970554785040816
7.7275,-0.1571921577654285
7.73,-0.1458196819185751
7.7325,-0.12551725752681314
7.735,-0.09835564341075648
7.7375,-0.06839949241773523
7.74,-0.04095503354694502
7.7425,-0.021411770473499948
7.745,-0.013984028862772087
7.7475,-0.020674118463247328
7.75,-0.0406960457221954
7.7525,-0.07046805635793425
7.755,-0.10416639611491182
7.7575,-0.13475094500211462
7.76,-0.15531414433789187
7.7625,-0.16055533475927436
7.765,-0.1481297172842213
7.7675,-0.11956370664700851
7.77,-0.08041137611200247
7.7725,-0.039420665471819556
7.775,-0.0067075329425353835
7.7775,0.008746851044900167
7.78,0.0016454484984177308
7.7825,-0.02784769669138557
7.785,-0.07382409792070616
7.7875,-0.12609520228379917
7.79,-0.17297026626242468
7.7925,-0.2043587850210935
7.795,-0.21409475581046064
7.7975,-0.20073182011419888
7.8,-0.16665637120870308
7.8025,-0.11596539922958589
7.805,-0.051994888242942565
7.8075,0.024467756393703258
7.81,0.11550882091107302
7.8125,0.22481378642674374
7.815,0.35543792384934564
7.8175,0.5077732922122783
7.82,0.6787618441427182
7.8225,0.8627231544515055
7.825,1.0533128182355251
7.8275,1.2455897040640935
7.83,1.4371896048123212
7.8325,1.6281029453161744
7.835,1.819245240355641
7.8375,2.0105417867459194
7.84,2.1993991538212794
7.8425,2.38022310946883
7.845,2.545230200431909
7.8475,2.686326281754022
7.85,2.7973907025181313
7.8525,2.876064704535886
7.855,2.9242703463590436
7.8575,2.9472022366136534
7.86,2.9512067184042605
7.8625,2.9414375900677396
7.865,2.9202345886456413
7.8675,2.8868414460287637
7.87,2.8385444283983694
7.8725,2.7727717417581657
7.875,2.68932426006166
7.8775,2.591826071583997
7.88,2.487719812463443
7.8825,2.3866306464598885
7.885,2.297540568210096
7.8875,2.225721053362946
7.89,2.170531055067006
7.8925,2.1249101062719093
7.895,2.07680909556674
7.8975,2.0121493930685976
7.9,1.9184081464118727
7.9025,1.7877373617223111
7.905,1.6187009168260686
7.9075,1.4162192716397073
7.91,1.189964336727721
7.9125,0.9519583397810585
7.915,0.7142695362236259
7.9175,0.4874488041841206
7.92,0.2799008164712086
7.9225,0.09796014808771585
7.925,-0.053800435096862
7.9275,-0.17249196406537987
7.93,-0.25727253778279285
7.9325,-0.3100005837632406
7.935,-0.3357469233545396
7.9375,-0.34266987776103025
7.94,-0.34093322150067196
7.9425,-0.3407114178220368
7.945,-0.34976339254555533
7.9475,-0.37137548962295797
7.95,-0.40348261064590535
7.9525,-0.4394151659065062
7.955,-0.47013242283542417
7.9575,-0.487250423292013
7.96,-0.4858799856951686
7.9625,-0.4663546147986738
7.965,-0.43431029213776423
7.9675,-0.39913797780965593
7.97,-0.3713659933473028
7.9725,-0.3598490150063219
7.975,-0.36963327299075216
7.9775,-0.40105314971568523
7.98,-0.4501335330448064
7.9825,-0.509939951865206
7.985,-0.5723193661525661
7.9875,-0.6295429312389099
7.99,-0.6755714457180381
7.9925,-0.706848722091923
7.995,-0.7226121453656587
7.9975,-0.7247301316800656
8.0,-0.7171040209514871
8.0025,-0.7047335375444937
8.005,-0.6926193677654784
8.0075,-0.6847351458668285
8.01,-0.6833220307781266
8.0125,-0.6887112032917977
8.015,-0.6997343385590346
8.0175,-0.7145700371302313
8.02,-0.7317038117575173
8.0225,-0.7506448428862301
8.025,-0.7721353105964291
8.0275,-0.7977478591524533
8.03,-0.8289723843957473
8.0325,-0.866123613567213
8.035,-0.9075568392953868
8.0375,-0.9496327635557947
8.04,-0.9875927238062486
8.0425,-1.0171081332015248
8.045,-1.0359458741490122
8.0475,-1.0450971881479985
8.05,-1.0488878847595284
8.0525,-1.0539479335018602
8.055,-1.0673330595414914
8.0575,-1.0944096230761433
8.06,-1.137208135814888
8.0625,-1.1937668334729858
8.065,-1.2586053937639017
8.0675,-1.32408119057894
8.07,-1.3821576034659735
8.0725,-1.426098176046928
8.075,-1.4517225227969872
8.0775,-1.4580252715220992
8.08,-1.4471073916315336
8.0825,-1.4234859831585214
8.085,-1.392946413964272
8.0875,-1.3611838909445635
8.09,-1.3325342529686195
8.0925,-1.3090972067148132
8.095,-1.2904926849788332
8.0975,-1.2743393274236414
8.1,-1.2573060154861138
8.1025,-1.2363462563853405
8.105,-1.209620933355688
8.1075,-1.1767357132803706
8.11,-1.1382275147002952
8.1125,-1.094587343932377
8.115,-1.0453324168180949
8.1175,-0.9886272726876711
8.12,-0.9217116475403538
8.1225,-0.8420351465369934
8.125,-0.7486743519062391
8.1275,-0.6434503320677601
8.13,-0.5312471251027672
8.1325,-0.4193281394474464
8.135,-0.3158338515818056
8.1375,-0.22795298609624134
8.14,-0.16035917161662006
8.1425,-0.1143726811439779
8.145,-0.08803213730415473
8.1475,-0.07697257253970885
8.15,-0.07579119340266982
8.1525,-0.07947186071867891
8.155,-0.08444637337210588
8.1575,-0.08900420605251677
8.16,-0.09299340286262102
8.1625,-0.09700106008696525
8.165,-0.1013720639534117
8.1675,-0.10547006258138818
8.17,-0.10749559067044198
8.1725,-0.10497091853028975
8.175,-0.0957380495427511
8.1775,-0.07909845214538763
8.18,-0.05664767335028257
8.1825,-0.03244580245114788
8.185,-0.01236117248265462
8.1875,-0.0026691091978714343
8.19,-0.00824064987646039
8.1925,-0.030852748553063584
8.195,-0.06818730732568515
8.1975,-0.11389917657560089
8.2,-0.15878563635862777
8.2025,-0.19274429330687773
8.205,-0.20700826210249207
8.2075,-0.19613129667985524
8.21,-0.15929720090346702
8.2125,-0.1006762586517884
8.215,-0.028732852284023325
8.2175,0.04538755900267412
8.22,0.11003944417412706
8.2225,0.15533434522980585
8.225,0.1749768875529953
8.2275,0.1672959629649544
8.23,0.13528455758825744
8.2325,0.08570312290840669
8.235,0.027527152291135087
8.2375,-0.02984463734774793
8.24,-0.07820806370648949
8.2425,-0.11170396982029766
8.245,-0.12736292882248662
8.2475,-0.1250321101307253
8.25,-0.10678478341347276
8.2525,-0.07604219160384201
8.255,-0.036735547846322665
8.2575,0.007199094298927669
8.26,0.051892743558231647
8.2625,0.0933237550447482
8.265,0.12710476772521984
8.2675,0.14859567974870494
8.27,0.15355566044678418
8.2725,0.13931445660676708
8.275,0.10612476778114713
8.2775,0.05810723160693007
8.28,0.003209153364000155
8.2825,-0.04808039283260741
8.285,-0.08503506573245787
8.2875,-0.09938332092806192
8.29,-0.08757435437031652
8.2925,-0.051890685366925905
8.295,-2.1456072040507412e-05
8.2975,0.05678221267317578
8.3,0.106386361169095
8.3025,0.1385046905835202
8.305,0.1468001740248692
8.3075,0.12995296987910274
8.31,0.09159447410217318
8.3125,0.039264455479707805
8.315,-0.017279006635008948
8.3175,-0.06799745309694723
8.32,-0.10438191298866223
8.3225,-0.12083786886450792
8.325,-0.11545210986259392
8.3275,-0.09007346556854887
8.33,-0.04978275346874474
8.3325,-0.0019478853180789834
8.335,0.04490147828459809
8.3375,0.08220651779234477
8.34,0.10245052499121353
8.3425,0.10016198153271233
8.345,0.07282327426948912
8.3475,0.0215883047010879
8.35,-0.048363509422287676
8.3525,-0.12805860837255173
8.355,-0.20574619273480235
8.3575,-0.2687449784392703
8.36,-0.30586997607397587
8.3625,-0.3098871285139404
8.365,-0.27932183578322595
8.3675,-0.21908322361349108
8.37,-0.1396810200765969
8.3725,-0.05517833643755403
8.375,0.019656900263686602
8.3775,0.0723376417078742
8.38,0.09508182365503419
8.3825,0.08612247190167638
8.385,0.049644452192034755
8.3875,-0.005551590127339971
8.39,-0.06823444593707152
8.3925,-0.12717217475772885
8.395,-0.17323569845279022
8.3975,-0.20082303936479176
8.4,-0.20850577705499623
8.4025,-0.19894418477511722
8.405,-0.17813325886742015
8.4075,-0.15403299647273294
8.41,-0.134718945295256
8.4125,-0.12637345552102103
8.415,-0.13160850777119157
8.4175,-0.14863132298649395
8.42,-0.17158890728454254
8.4225,-0.1921085853956443
8.425,-0.20168559946892536
8.4275,-0.1942678646169681
8.43,-0.16825557771164104
8.4325,-0.12723224307362802
8.435,-0.07907228611802379
8.4375,-0.03355713276566098
8.44,0.0008614806363703582
8.4425,0.0201634530638248
8.445,0.026705525657258786
8.4475,0.029325005677041414
8.45,0.04153109386841186
8.4525,0.078360978774622
8.455,0.15287990753114303
8.4575,0.2733130371995349
8.46,0.44147818328605115
8.4625,0.6527384910195179
8.465,0.8972863294130038
8.4675,1.1622808655008
8.47,1.4342158767279638
8.4725,1.7009214747370816
8.475,1.9528064692484595
8.4775,2.183246222562643
8.48,2.3882840079991703
8.4825,2.565953088044775
8.485,2.715532981332302
8.4875,2.8369674587205016
8.49,2.9305448218308374
8.4925,2.9968212759291193
8.495,3.03669288112667
8.4975,3.051503844145401
8.5,3.043112121481767
8.5025,3.0138971775813967
8.505,2.9667467579366322
8.5075,2.905057304886458
8.51,2.8327356805891504
8.5125,2.754148189343554
8.515,2.673950073746242
8.5175,2.596736872907442
8.52,2.5264948661290334
8.5225,2.4658996301221863
8.525,2.415591872266635
8.5275,2.3736132300652453
8.53,2.33520139616774
8.5325,2.293106111861457
8.535,2.238469601821942
8.5375,2.1621487922884803
8.54,2.0562288025514515
8.5425,1.9154344226966897
8.545,1.7381628731024996
8.5475,1.5269123742755348
8.55,1.2879894799242997
8.5525,1.030560804062894
8.555,0.7653188675106148
8.5575,0.5031489741471735
8.56,0.25412843965101795
8.5625,0.02697629979935293
8.565,-0.17116896572025198
8.5675,-0.33487860040153583
8.57,-0.460635864084898
8.5725,-0.547115906756813
8.575,-0.5954341681183936
8.5775,-0.6092554349059829
8.58,-0.5947157629245705
8.5825,-0.5601347056107492
8.585,-0.5154697890044332
8.5875,-0.47145270098818215
8.59,-0.4383963601850132
8.5925,-0.42476299018143143
8.595,-0.43570531984402316
8.5975,-0.47190994804912195
8.6,-0.5291284451191827
8.6025,-0.5986991587810848
8.605,-0.6691218657000143
8.6075,-0.728430208671459
8.61,-0.7668300668073048
8.6125,-0.7789256475679525
8.615,-0.7649076187496043
8.6175,-0.7303545596356712
8.62,-0.6847186989289
8.6225,-0.6389561562031886
8.625,-0.6029728771609901
8.6275,-0.5835503150406113
8.63,-0.5832336702037585
8.6325,-0.6003792722238844
8.635,-0.630240515544588
8.6375,-0.666705693174095
8.64,-0.7041609162745138
8.6425,-0.7389679926076292
8.645,-0.7701894072950287
8.6475,-0.799403179737929
8.65,-0.8296929119723899
8.6525,-0.8641374749390794
8.655,-0.904284618629552
8.6575,-0.9490978445261786
8.66,-0.9947212770025311
8.6625,-1.0351902468695258
8.665,-1.0639875622195183
8.6675,-1.076113257759985
8.67,-1.0701100535418502
8.6725,-1.0493548823187884
8.675,-1.022019273601865
8.6775,-0.9994696742420981
8.68,-0.9934173035793926
8.6825,-1.012621241994773
8.685,-1.0601895327504045
8.6875,-1.132399105318473
8.69,-1.2194918192141067
8.6925,-1.3082593405985592
8.695,-1.3856375920113666
8.6975,-1.4422014869082544
8.7,-1.4744831629193644
8.7025,-1.485412454225947
8.705,-1.4827928701231659
8.7075,-1.4763981229443055
8.71,-1.474748149199105
8.7125,-1.4826772303353157
8.715,-1.5004166006105575
8.7175,-1.524288833999563
8.72,-1.548542677641039
8.7225,-1.5675514354808866
8.725,-1.5776135076631073
8.7275,-1.5778473154820762
8.73,-1.5700086988940005
8.7325,-1.5573705713855657
8.735,-1.5430775617262567
8.7375,-1.5285915705057433
8.74,-1.5128565314419393
8.7425,-1.4925371770199047
8.745,-1.4632153417803606
8.7475,-1.4210082253021956
8.75,-1.3639340538751177
8.7525,-1.2925358846587351
8.755,-1.2096390799512906
8.7575,-1.1194592304412052
8.76,-1.026464047331562
8.7625,-0.9343990751063869
8.765,-0.8457586302010927
8.7675,-0.7617923071702568
8.77,-0.6829414394055164
8.7725,-0.6094416227458669
8.775,-0.5417718842062196
8.7775,-0.48073909726511116
8.78,-0.42721334712274345
8.7825,-0.3817188953769606
8.785,-0.3441109819475457
8.7875,-0.31345749215110225
8.79,-0.28812483637493014
8.7925,-0.266022177995677
8.795,-0.2449545473485874
8.7975,-0.22300755572537426
8.8,-0.1988535408073706
8.8025,-0.17191050539029953
8.805,-0.14239948697738342
8.8075,-0.11141242325646178
8.81,-0.08102653375162339
8.8125,-0.05434407541062481
8.815,-0.03525387250689234
8.8175,-0.02778848929178043
8.82,-0.03513615446107223
8.8225,-0.05855140749608754
8.825,-0.0965199475048807
8.8275,-0.14452791759894076
8.83,-0.1956312600301743
8.8325,-0.24174918835133838
8.835,-0.27534061171165136
8.8375,-0.29099117682946785
8.84,-0.28648321427394186
8.8425,-0.26310130877883686
8.845,-0.22516430477317984
8.8475,-0.17898217787616288
8.85,-0.13154534102333548
8.8525,-0.08924913618450854
8.855,-0.056878212937503315
8.8575,-0.03698415164466529
8.86,-0.029718081063859304
8.8625,-0.033124272390391715
8.865,-0.0438404359960464
8.8675,-0.058068833785921994
8.87,-0.07258941708370868
8.8725,-0.08553364852117222
8.875,-0.09668513049202389
8.8775,-0.10722899140196379
8.88,-0.11907104234398974
8.8825,-0.133986636914533
8.885,-0.15286874334540212
8.8875,-0.17524951357423782
8.89,-0.1991663755199256
8.8925,-0.22139822149395205
8.895,-0.23807291336706826
8.8975,-0.24556595602966647
8.9,-0.24147776288635314
8.9025,-0.22540062112745332
8.905,-0.19924736733737378
8.9075,-0.16706376002474904
8.91,-0.13437113847582116
8.9125,-0.10714482893793005
8.915,-0.09058437450402429
8.9175,-0.08791644502243232
8.92,-0.09954037600039502
8.9225,-0.12279267011997604
8.925,-0.15244106199579052
8.9275,-0.18178551148104155
8.93,-0.2040672588083655
8.9325,-0.21385398921904067
8.935,-0.20814314218589838
8.9375,-0.18700462674430318
8.94,-0.15363710355448093
8.9425,-0.11379249305516716
8.945,-0.07465777689032568
8.9475,-0.04341527989540274
8.95,-0.02577017456164072
8.9525,-0.02474373176997983
8.955,-0.04001233710318663
8.9575,-0.06799673276034371
8.96,-0.10272452059517746
8.9625,-0.1372393149792429
8.965,-0.16514307232827685
8.9675,-0.1818499392488027
8.97,-0.1852946785641343
8.9725,-0.1760489702176326
8.975,-0.15693093240153294
8.9775,-0.1322431959795125
8.98,-0.10681340860711731
8.9825,-0.08505702937737268
8.985,-0.0702847689058469
8.9875,-0.06439685088261449
8.99,-0.06796224087958197
8.9925,-0.08053590562271837
8.995,-0.1009987386540669
8.9975,-0.12775728253108712
9.0,-0.15877719213222385
9.0025,-0.1915527339610754
9.005,-0.22316585245903187
9.0075,-0.25055788499086545
9.01,-0.2710529699004715
9.0125,-0.28304904184049867
9.015,-0.28664781340881695
9.0175,-0.28390980385670933
9.02,-0.2784973334020129
9.0225,-0.2747001133628995
9.025,-0.27609523256589186
9.0275,-0.2842588438727668
9.03,-0.29798298411896984
9.0325,-0.3133512285496631
9.035,-0.3247902376238815
9.0375,-0.32687790437424985
9.04,-0.31635587530304765
9.0425,-0.29361782434882133
9.045,-0.26305418832600663
9.0475,-0.23203333162423
9.05,-0.20882715190905024
9.0525,-0.2001948685033731
9.055,-0.2094327855225113
9.0575,-0.23546865664388583
9.06,-0.27317737369622275
9.0625,-0.31471060735249845
9.065,-0.35138930297978105
9.0675,-0.375636033567354
9.07,-0.3824975983033834
9.0725,-0.3704753852335333
9.075,-0.34158154733912355
9.0775,-0.3007159148948221
9.08,-0.25456950365663633
9.0825,-0.21029012703103897
9.085,-0.17411612878268642
9.0875,-0.15014189660167235
9.09,-0.1393603230855626
9.0925,-0.13913954631463826
9.095,-0.14330197712669818
9.0975,-0.14291743607723736
9.1,-0.12775778867163373
9.1025,-0.08813692181195872
9.105,-0.016695341269006108
9.1075,0.09032563851885585
9.11,0.23263466178146644
9.1125,0.40634076104200695
9.115,0.6051040926184967
9.1175,0.8215579469650044
9.12,1.0484963357412092
9.1225,1.2794741695409413
9.125,1.508798092133981
9.1275,1.731215527484491
9.13,1.9417383597271625
9.1325,2.13588845934226
9.135,2.310336032881607
9.1375,2.463623852423297
9.14,2.5965572376655506
9.1425,2.7119013273914203
9.145,2.813255640668051
9.1475,2.9033524482313022
9.15,2.9824132010411346
9.1525,3.0473487753884565
9.155,3.0923403233709514
9.1575,3.1107736353319497
9.16,3.097904920742776
9.1625,3.053289386012603
9.165,2.9820372320140893
9.1675,2.8943467876272537
9.17,2.803351675054166
9.1725,2.721886503473982
9.175,2.659120214374396
9.1775,2.6180290690262966
9.18,2.5944065981242215
9.1825,2.5776441998787454
9.185,2.553007722753223
9.1875,2.5047365008705387
9.19,2.4191402915403177
9.1925,2.2870117179867364
9.195,2.104995167322451
9.1975,1.875865325483516
9.2,1.6078592922446107
9.2025,1.3133014014106268
9.205,1.0068232765639211
9.2075,0.7035113875001942
9.21,0.4172664545453312
9.2125,0.15954311227875884
9.215,-0.06147902894828191
9.2175,-0.24132119520400422
9.22,-0.37929718634136395
9.2225,-0.47832859426156293
9.225,-0.544477952724553
9.2275,-0.5861431477046898
9.23,-0.6128841565322575
9.2325,-0.6339523417148653
9.235,-0.656714855031208
9.2375,-0.6852849680565098
9.24,-0.7197504910150864
9.2425,-0.7563523079335182
9.245,-0.7887270393311232
9.2475,-0.8099473462774673
9.25,-0.8147675198698596
9.2525,-0.8013917440077896
9.255,-0.7722477338062742
9.2575,-0.7335588011792927
9.26,-0.6938465802667934
9.2625,-0.6617955202681868
9.265,-0.644105435519668
9.2675,-0.643965021917848
9.27,-0.6605578002540401
9.2725,-0.6896521928459368
9.275,-0.7250029133507584
9.2775,-0.7601153292171584
9.28,-0.7898974424726393
9.2825,-0.8118056697473165
9.285,-0.826252712845886
9.2875,-0.8362396337930461
9.29,-0.8463312243465688
9.2925,-0.8612002372669074
9.295,-0.8840705571149516
9.2975,-0.9154947118714545
9.3,-0.9529124527944859
9.3025,-0.9912632374490797
9.305,-1.0245867053790558
9.3075,-1.0481592280497631
9.31,-1.0604276304894034
9.3125,-1.0639512625753815
9.315,-1.0648405914462218
9.3175,-1.0707457552909505
9.32,-1.0880834602146783
9.3225,-1.1195768324782833
9.325,-1.163100310581467
9.3275,-1.212302981074807
9.33,-1.2587839662739788
9.3325,-1.2950188295575145
9.335,-1.3169902875341541
9.3375,-1.3256130717872474
9.34,-1.326485656585609
9.3425,-1.3280832587191846
9.345,-1.3390240944870746
9.3475,-1.3653248456537048
9.35,-1.4085264572704055
9.3525,-1.4652501081055016
9.355,-1.528276649447252
9.3575,-1.5887933287644203
9.36,-1.6391221416913746
9.3625,-1.675093897166
9.365,-1.6973034876448683
9.3675,-1.7107749826934637
9.37,-1.7230306010577556
9.3725,-1.7411021663468556
9.375,-1.7684761545347965
9.3775,-1.8030981416365064
9.38,-1.8372507859834766
9.3825,-1.8594587678407422
9.385,-1.8578392336397416
9.3875,-1.8237943811761286
9.39,-1.7548111836231013
9.3925,-1.6554350156521511
9.395,-1.53612568627812
9.3975,-1.4104483030790622
9.4,-1.2915931760819859
9.4025,-1.1893528274028604
9.405,-1.1084019820329443
9.4075,-1.0481821510803393
9.41,-1.0041168145811894
9.4125,-0.9695039070428276
9.415,-0.9373815245882596
9.4175,-0.9019002387241201
9.42,-0.859072333568446
9.4225,-0.8070066437202168
9.425,-0.7458041363390578
9.4275,-0.6772439093029508
9.43,-0.6043343559629131
9.4325,-0.5307969191198523
9.435,-0.4605682417706744
9.4375,-0.39738562080456086
9.44,-0.3444380845604679
9.4425,-0.3039854791515901
9.445,-0.27686395718374945
9.4475,-0.26193711836966355
9.45,-0.2557417923859248
9.4525,-0.25267040211276925
9.455,-0.24591143789308548
9.4575,-0.22905248602926076
9.46,-0.1978987388186994
9.4625,-0.15187645128285654
9.465,-0.09448227905834998
9.4675,-0.032561521957059754
9.47,0.02539250983550416
9.4725,0.07138939319458604
9.475,0.09987692878098231
9.4775,0.10890603072157494
9.48,0.10026515851120334
9.4825,0.07866529312259853
9.485,0.05032021920851965
9.4875,0.021385946583049174
9.49,-0.003314971189122821
9.4925,-0.02101374145255077
9.495,-0.031091191018089583
9.4975,-0.03465876754294183
9.5,-0.0338391519281021
9.5025,-0.030976221971538778
9.505,-0.02796482822295062
9.5075,-0.02584622556946148
9.51,-0.024768472356241796
9.5125,-0.02432756293051412
9.515,-0.024173552757178488
9.5175,-0.02462904234576645
9.52,-0.026998726708183096
9.5225,-0.03331630023655108
9.525,-0.04549942266430374
9.5275,-0.06419222641796941
9.53,-0.08780150245241501
9.5325,-0.11221943149047438
9.535,-0.1314671963826488
9.5375,-0.1391416855112181
9.54,-0.13025373729547893
9.5425,-0.10287224252693754
9.545,-0.058978355988897675
9.5475,-0.0041544709496795975
9.55,0.053836952727297264
9.5525,0.10707511837626006
9.555,0.14936330087675972
9.5575,0.17734782438173047
9.56,0.19062396101882606
9.5625,0.19100205100486825
9.565,0.18138894097767924
9.5675,0.16478809499360844
9.57,0.14375658057947083
9.5725,0.1203928107941974
9.575,0.09669653895095896
9.5775,0.07500721188985592
9.58,0.05819755718642224
9.5825,0.04938566409728868
9.585,0.051132422344083134
9.5875,0.06435560604200272
9.59,0.08739927059989623
9.5925,0.115731825658389
9.595,0.14257481147694218
9.5975,0.16045173793562584
9.6,0.16329425909691064
9.6025,0.14845419158802242
9.605,0.1178706514767754
9.6075,0.0778473354252467
9.61,0.03738695547995193
9.6125,0.005597337613475535
9.615,-0.010957404168508295
9.6175,-0.010095510507081403
9.62,0.005496600833852985
9.6225,0.02921017793780589
9.625,0.05253121912906572
9.6275,0.0674776375707399
9.63,0.06874124898192718
9.6325,0.05498050919765276
9.635,0.02901256815649921
9.6375,-0.003022442848471245
9.64,-0.033214901802386475
9.6425,-0.0537524245435032
9.645,-0.05871165431026537
9.6475,-0.04543495376241165
9.65,-0.015204202790604983
9.6525,0.026969522301061217
9.655,0.07342894836454483
9.6575,0.11558995962601257
9.66,0.14588846162017802
9.6625,0.15947284726391375
9.665,0.15520639893172541
9.6675,0.13571959740082634
9.67,0.10652351027152013
9.6725,0.0744653748893286
9.675,0.04597209828717537
9.6775,0.025546099232061727
9.68,0.014874673850094094
9.6825,0.012732411558698411
9.685,0.015642520148773494
9.6875,0.019072200572450907
9.69,0.018816733404731063
9.6925,0.012197410759952666
9.695,-0.001236217856470512
9.6975,-0.019656804879846515
9.7,-0.03952010510834599
9.7025,-0.05652050913126036
9.705,-0.06664155054121479
9.7075,-0.06702968728379197
9.71,-0.05653220135986255
9.7125,-0.03586924567444274
9.715,-0.007488099230429887
9.7175,0.02483712137059233
9.72,0.056602389304877286
9.7225,0.08330511710827662
9.725,0.10124245363003333
9.7275,0.10829961006717213
9.73,0.10460753885158248
9.7325,0.09288109598339019
9.735,0.07822903599550626
9.7375,0.06732246294352133
9.74,0.06702025522345291
9.7425,0.08280332117062908
9.745,0.11752931044934263
9.7475,0.17096965278248197
9.75,0.24033330718542573
9.7525,0.3216322215131078
9.755,0.41144217303094394
9.7575,0.5084694080220344
9.76,0.614410351150541
9.7625,0.7338545800538451
9.765,0.873290159513089
9.7675,1.0394862332996593
9.77,1.2376207177356475
9.7725,1.4695406406333957
9.775,1.732517308625777
9.7775,2.018772336806523
9.78,2.315908182683939
9.7825,2.6082294889390782
9.785,2.878819669045747
9.7875,3.112107266974059
9.79,3.296494309419242
9.7925,3.426483687771977
9.795,3.5037376011674866
9.7975,3.5366840554668406
9.8,3.5386413050688
9.8025,3.5248464762230935
9.805,3.509098326838776
9.8075,3.5008364533939336
9.81,3.5033751506060504
9.8125,3.5137490563512843
9.815,3.5242396174133948
9.8175,3.5251701545348584
9.82,3.5081171659355235
9.8225,3.4684898262965453
9.825,3.4066119829517545
9.8275,3.3269678322435934
9.83,3.2359417991525974
9.8325,3.1389168710594983
9.835,3.0377924552968616
9.8375,2.9298105492043813
9.84,2.808132102918432
9.8425,2.6640222034223946
9.845,2.489944515158782
9.8475,2.282515503143999
9.85,2.044276925612715
9.8525,1.783642635064475
9.855,1.5130338803476164
9.8575,1.2458815455313077
9.86,0.9935715918230178
9.8625,0.7633786127142872
9.865,0.5579926092996199
9.8675,0.3765874260811287
9.87,0.21678720407206528
9.8725,0.07661018955525498
9.875,-0.04439371015858058
9.8775,-0.14514795373831535
9.88,-0.22401542079534983
9.8825,-0.28018511130312607
9.885,-0.3148455788305046
9.8875,-0.3316583980149779
9.89,-0.33634039866530846
9.8925,-0.33549742087977935
9.895,-0.3351160872191816
9.8975,-0.3392256774204371
9.9,-0.349159033979806
9.9025,-0.36361741406272474
9.905,-0.37947653907807666
9.9075,-0.39304766312605616
9.91,-0.4013841120783113
9.9125,-0.4032360323018652
9.915,-0.39940184598887457
9.9175,-0.39243668952456257
9.92,-0.3858603129977845
9.9225,-0.3831091916233231
9.925,-0.3865145840866366
9.9275,-0.39659030540277246
9.93,-0.4118707876220635
9.9325,-0.42940806981705343
9.935,-0.445810901613751
9.9375,-0.45847317698983925
9.94,-0.46652543027265025
9.9425,-0.47114013409178385
9.945,-0.475092125205257
9.9475,-0.48177050885137834
9.95,-0.49401595118625874
9.9525,-0.5131821047973938
9.955,-0.5387275567031199
9.9575,-0.5684614461292433
9.96,-0.5993264775590866
9.9625,-0.6284058193653712
9.965,-0.6537950464874381
9.9675,-0.6750936904864298
9.97,-0.6934435584919318
9.9725,-0.7111780680871248
9.975,-0.7312208175041668
9.9775,-0.7563883551920738
9.98,-0.7887274885453538
9.9825,-0.8289907467458048
9.985,-0.8763621454946998
9.9875,-0.9285658498135215
9.99,-0.9824419739123059
9.9925,-1.0349093930462376
9.995,-1.084019727726836
9.9975,-1.129680151144013
10.0,-1.1736864669722278
10.0025,-1.218954337495975
10.005,-1.2681696601708907
10.0075,-1.3223600979295171
10.01,-1.3799757273084077
10.0125,-1.436882639286824
10.015,-1.4872924654250403
10.0175,-1.5252701105631605
10.02,-1.5462642839557978
10.0225,-1.5481533307509334
10.025,-1.5315371735528411
10.0275,-1.4993154069492713
10.03,-1.4558388184841677
10.0325,-1.4060029070037463
10.035,-1.3545393120053484
10.0375,-1.3055412652994756
10.04,-1.2620951559820566
10.0425,-1.2258944905183866
10.045,-1.1968546327585985
10.0475,-1.1728912558842566
10.05,-1.150054453553065
10.0525,-1.123114345948828
10.055,-1.0865495596935577
10.0575,-1.0357669537675194
10.06,-0.968295882088595
10.0625,-0.8846516627210547
10.065,-0.7885769848313721
10.0675,-0.6864914112999063
10.07,-0.5862094645656464
10.0725,-0.4952408874827995
10.075,-0.4191335125444748
10.0775,-0.36029208376022975
10.08,-0.31754881288412823
10.0825,-0.286568572871
10.085,-0.26099683453610456
10.0875,-0.23409788368876125
10.09,-0.20048975395363763
10.0925,-0.1575146618517601
10.095,-0.10584952224197929
10.0975,-0.04917181609086505
10.1,0.006998965188249784
10.1025,0.05687854849998154
10.105,0.09588708595339651
10.1075,0.12159646309796197
10.11,0.13399943933004158
10.1125,0.1351790147672784
10.115,0.1285812217370617
10.1175,0.11813819767640149
10.12,0.10748611065876021
10.1225,0.0994497105793113
10.125,0.09581536087125411
10.1275,0.09727919608999966
10.13,0.10345032848111574
10.1325,0.11290085031208631
10.135,0.12335064160409208
10.1375,0.1320538982436573
10.14,0.13634771525409192
10.1425,0.1342283492337892
10.145,0.12479498413182483
10.1475,0.10844428476679102
10.15,0.08677753670186478
10.1525,0.06224320736321006
10.155,0.03756057483648183
10.1575,0.01499986105792122
10.16,-0.00432595420342466
10.1625,-0.020917338589219153
10.165,-0.03685685923131702
10.1675,-0.05518406595073464
10.17,-0.07876986685654916
10.1725,-0.10898333050939076
10.175,-0.14459892487463397
10.1775,-0.18143320868090043
10.18,-0.21302795959033363
10.1825,-0.23230574956297195
10.185,-0.23368941540267835
10.1875,-0.21494595824633517
10.19,-0.17810600039060145
10.1925,-0.1291471614060754
10.195,-0.07655652863154458
10.1975,-0.02926360400993582
10.2,0.005370038015606189
10.2025,0.022903027646501463
10.205,0.0222320105691965
10.2075,0.0051779291556852645
10.21,-0.024407668291240206
10.2125,-0.0616184126328096
10.215,-0.10127938792313654
10.2175,-0.1384802601978263
10.22,-0.16895436896922514
10.2225,-0.18942106756876642
10.225,-0.19789716128474696
10.2275,-0.19387231991447962
10.23,-0.1782522152525734
10.2325,-0.15308746447430674
10.235,-0.12120847054637197
10.2375,-0.08589289592813479
