time_s,ecg_processed
0.0,0.005348595045474525
0.0025,0.005354980523661174
0.005,0.005361072354437586
0.0075,0.005366868369392615
0.01,0.005372366405191801
0.0125,0.005377564303737936
0.015,0.005382459912332191
0.0175,0.005387051083835834
0.02,0.005391335676832558
0.0225,0.005395311555791402
0.025,0.005398976591230256
0.0275,0.005402328659879907
0.03,0.005405365644848636
0.0325,0.005408085435787333
0.035,0.005410485929055174
0.0375,0.005412565027885814
0.04,0.005414320642554101
0.0425,0.005415750690543307
0.045,0.005416853096712857
0.0475,0.005417625793466609
0.05,0.005418066720921643
0.0525,0.005418173827077556
0.055,0.005417945067986216
0.0575,0.005417378407921955
0.06,0.0054164718195522195
0.0625,0.0054152232841086665
0.065,0.005413630791558732
0.0675,0.005411692340777661
0.07,0.0054094059397209494
0.0725,0.005406769605597197
0.075,0.0054037813650413625
0.0775,0.005400439254288428
0.08,0.0053967413193474496
0.0825,0.005392685616175984
0.085,0.00538827021085488
0.0875,0.0053834931797634425
0.09,0.005378352609754959
0.0925,0.005372846598332593
0.095,0.0053669732538256095
0.0975,0.005360730695565924
0.1,0.005354117054064996
0.1025,0.005347130471191079
0.105,0.005339769100346797
0.1075,0.0053320311066470324
0.11,0.005323914667097068
0.1125,0.0053154179707709725
0.115,0.00530653921899021
0.1175,0.005297276625502473
0.12,0.00528762841666078
0.1225,0.005277592831602812
0.125,0.005267168122430492
0.1275,0.005256352554389804
0.13,0.005245144406050848
0.1325,0.005233541969488103
0.135,0.00522154355046087
0.1375,0.005209147468593883
0.14,0.005196352057558117
0.1425,0.005183155665251756
0.145,0.005169556653981307
0.1475,0.005155553400642834
0.15,0.005141144296903301
0.1525,0.0051263277493819965
0.155,0.005111102179832066
0.1575,0.005095466025322119
0.16,0.00507941773841794
0.1625,0.00506295578736426
0.165,0.0050460786562665965
0.1675,0.00502878484527314
0.17,0.0050110728707566735
0.1725,0.004992941265496544
0.175,0.0049743885788606865
0.1775,0.00495541337698765
0.18,0.004936014242968576
0.1825,0.004916189777029108
0.185,0.004895938596711254
0.1875,0.004875259337055196
0.19,0.00485415065078108
0.1925,0.004832611208470751
0.195,0.004810639698749418
0.1975,0.004788234828467237
0.2,0.004765395322880778
0.2025,0.004742119925834373
0.205,0.0047184073999413335
0.2075,0.004694256526765035
0.21,0.0046696661069998814
0.2125,0.004644634960652102
0.215,0.004619161927220368
0.2175,0.0045932458658761765
0.22,0.004566885655643996
0.2225,0.004540080195581196
0.225,0.004512828404957745
0.2275,0.004485129223435682
0.23,0.004456981611248329
0.2325,0.004428384549379252
0.235,0.004399337039740951
0.2375,0.004369838105353271
0.24,0.004339886790521503
0.2425,0.004309482161014164
0.245,0.004278623304240451
0.2475,0.004247309329427327
0.25,0.004215539367796243
0.2525,0.0041833125727395075
0.255,0.0041506281199962854
0.2575,0.004117485207828183
0.26,0.004083883057194384
0.2625,0.004049820911926308
0.265,0.0040152980389018475
0.2675,0.003980313728219191
0.27,0.003944867293370228
0.2725,0.003908958071413523
0.275,0.003872585423146789
0.2775,0.0038357487332788395
0.28,0.0037984474106009997
0.2825,0.0037606808881579267
0.285,0.003722448623417857
0.2875,0.0036837500984422873
0.29,0.003644584820055099
0.2925,0.003604952320011136
0.295,0.0035648521551641687
0.2975,0.003524283907634229
0.3,0.0034832471849743003
0.3025,0.003441741620336338
0.305,0.0033997668726366294
0.3075,0.0033573226267204635
0.31,0.0033144085935261033
0.3125,0.0032710245102480673
0.315,0.003227170140499687
0.3175,0.003182845274474938
0.32,0.003138049729109529
0.3225,0.003092783348241231
0.325,0.0030470460027694234
0.3275,0.0030008375908138485
0.33,0.002954158037872551
0.3325,0.0029070072969789753
0.335,0.0028593853488582013
0.3375,0.0028112922020823317
0.34,0.0027627278932250217
0.3425,0.0027136924870151437
0.345,0.002664186076489554
0.3475,0.0026142087831449385
0.35,0.0025637607570887315
0.3525,0.00251284217718908
0.355,0.002461453251223843
0.3575,0.002409594216028597
0.36,0.0023572653376436516
0.3625,0.002304466911460051
0.365,0.0022511992623645647
0.3675,0.0021974627448836438
0.37,0.0021432577433263167
0.3725,0.002088584671926015
0.375,0.0020334439749813155
0.3775,0.0019778361269955865
0.38,0.0019217616328155427
0.3825,0.0018652210277686806
0.385,0.0018082148777995581
0.3875,0.001750743779604913
0.39,0.0016928083607676016
0.3925,0.0016344092798893396
0.395,0.001575547226722239
0.3975,0.0015162229222991223
0.4,0.0014564371190626008
0.4025,0.0013961906009928977
0.405,0.0013354841837344082
0.4075,0.001274318714720973
0.41,0.0012126950732998466
0.4125,0.0011506141708543555
0.415,0.0010880769509252243
0.4175,0.0010250843893305573
0.42,0.0009616374942844549
0.4225,0.0008977373065142519
0.425,0.0008333848993763653
0.4275,0.0007685813789707319
0.43,0.000703327884253822
0.4325,0.0006376255871502117
0.435,0.0005714756926627001
0.4375,0.0005048794389809528
0.44,0.0004378380975886573
0.4425,0.0003703529733691748
0.445,0.00030242540470967375
0.4475,0.00023405676360372906
0.45,0.00016524845575237283
0.4525,9.600192066357991e-05
0.455,2.6318631750173968e-05
0.4575,-4.379990357386138e-05
0.46,-0.00011435214379868222
0.4625,-0.00018533651322551157
0.465,-0.0002567514018752119
0.4675,-0.0003285951653985198
0.47,-0.0004008661249879578
0.4725,-0.0004735625672914397
0.475,-0.0005466827443275819
0.4775,-0.0006202248734027369
0.48,-0.0006941871370297601
0.4825,-0.0007685676828485249
0.485,-0.0008433646235482025
0.4875,-0.0009185760367913245
0.49,-0.0009941999651396415
0.4925,-0.0010702344159818002
0.495,-0.0011466773614628484
0.4975,-0.001223526738415579
0.5,-0.0013007804482937306
0.5025,-0.0013784363571070564
0.505,-0.0014564922953582897
0.5075,-0.001534946057982028
0.51,-0.0016137954042855542
0.5125,-0.0016930380578915924
0.515,-0.0017726717066829985
0.5175,-0.0018526940027494064
0.52,-0.0019331025623358477
0.5225,-0.0020138949657933745
0.525,-0.002095068757531696
0.5275,-0.002176621445973837
0.53,-0.0022585505035128297
0.5325,-0.002340853366470463
0.535,-0.002423527435058096
0.5375,-0.0025065700733395545
0.54,-0.002589978609196135
0.5425,-0.0026737503342937354
0.545,-0.002757882504052121
0.5475,-0.002842372337616334
0.55,-0.0029272170178302483
0.5525,-0.0030124136912122934
0.555,-0.0030979594679333687
0.5575,-0.00318385142179695
0.56,-0.0032700865902214045
0.5625,-0.0033566619742245434
0.565,-0.003443574538410454
0.5675,-0.003530821210958612
0.57,-0.0036183988836152644
0.5725,-0.003706304411687098
0.575,-0.0037945346140372035
0.5775,-0.0038830862730833424
0.58,-0.003971956134798546
0.5825,-0.004061140908714036
0.585,-0.00415063726792447
0.5875,-0.004240441849095548
0.59,-0.004330551252473996
0.5925,-0.004420962041899955
0.595,-0.004511670744821771
0.5975,-0.004602673852313207
0.6,-0.004693967819093132
0.6025,-0.004785549063547667
0.605,-0.004877413967754799
0.6075,-0.004969558877511449
0.61,-0.005061980102363014
0.6125,-0.005154673915635412
0.615,-0.005247636554469638
0.6175,-0.005340864219858865
0.62,-0.00543435307668812
0.6225,-0.005528099253776485
0.625,-0.005622098843921861
0.6275,-0.005716347903948312
0.63,-0.005810842454755998
0.6325,-0.0059055784813737
0.635,-0.006000551933013923
0.6375,-0.006095758723130586
0.64,-0.0061911947294793195
0.6425,-0.006286855794180412
0.645,-0.006382737723784447
0.6475,-0.006478836289340659
0.65,-0.0065751472264679745
0.6525,-0.006671666235428743
0.655,-0.006768388981205182
0.6575,-0.006865311093578543
0.66,-0.006962428167211025
0.6625,-0.007059735761730443
0.665,-0.0071572294018176505
0.6675,-0.007254904577296701
0.67,-0.007352756743227763
0.6725,-0.007450781320002791
0.675,-0.007548973693443935
0.6775,-0.007647329214904677
0.68,-0.007745843201373741
0.6825,-0.00784451093558182
0.685,-0.007943327666111187
0.6875,-0.008042288607508247
0.69,-0.00814138894039901
0.6925,-0.00824062381160743
0.695,-0.008339988334276576
0.6975,-0.008439477587992638
0.7,-0.008539086618911786
0.7025,-0.008638810439889903
0.705,-0.008738644030615214
0.7075,-0.008838582337743862
0.71,-0.008938620275038415
0.7125,-0.009038752723509295
0.715,-0.009138974531559154
0.7175,-0.009239280515130172
0.72,-0.009339665457854304
0.7225,-0.009440124111206467
0.725,-0.009540651194660727
0.7275,-0.009641241395849452
0.73,-0.00974188937072546
0.7325,-0.009842589743727105
0.735,-0.009943337107946376
0.7375,-0.010044126025300045
0.74,-0.010144951026703866
0.7425,-0.01024580661224978
0.745,-0.010346687251386138
0.7475,-0.010447587383100834
0.75,-0.010548501416107433
0.7525,-0.010649423729034303
0.755,-0.010750348670616796
0.7575,-0.010851270559892509
0.76,-0.010952183686399662
0.7625,-0.011053082310378617
0.765,-0.011153960662976517
0.7675,-0.011254812946454975
0.77,-0.011355633334400822
0.7725,-0.011456415971939884
0.775,-0.011557154975953785
0.7775,-0.011657844435299788
0.78,-0.011758478411033757
0.7825,-0.01185905093663627
0.785,-0.011959556018241838
0.7875,-0.012059987634871228
0.79,-0.01216033973866687
0.7925,-0.012260606255131347
0.795,-0.012360781083368962
0.7975,-0.012460858096330425
0.8,-0.012560831141060703
0.8025,-0.012660694038950052
0.805,-0.012760440585988195
0.8075,-0.01286006455302168
0.81,-0.012959559686014345
0.8125,-0.01305891970631088
0.815,-0.013158138310903384
0.8175,-0.01325720917270099
0.82,-0.013356125940802653
0.8225,-0.013454882240773217
0.825,-0.013553471674922733
0.8275,-0.013651887822588952
0.83,-0.013750124240422821
0.8325,-0.01384817446267696
0.835,-0.013946032001497112
0.8375,-0.014043690347216725
0.84,-0.014141142968654588
0.8425,-0.014238383313415617
0.845,-0.014335404808194972
0.8475,-0.014432200859085455
0.85,-0.014528764851888087
0.8525,-0.014625090152425697
0.855,-0.014721170106859426
0.8575,-0.014816998042008244
0.86,-0.014912567265671623
0.8625,-0.015007871066955445
0.865,-0.015102902716601096
0.8675,-0.015197655467317725
0.87,-0.015292122554117524
0.8725,-0.015386297194654024
0.875,-0.015480172589563485
0.8775,-0.015573741922809366
0.88,-0.015666998362029946
0.8825,-0.015759935058889122
0.885,-0.015852545149430332
0.8875,-0.015944821754433482
0.89,-0.016036757979774843
0.8925,-0.016128346916789903
0.895,-0.016219581642639192
0.8975,-0.016310455220677225
0.9,-0.01640096070082462
0.9025,-0.016491091119943395
0.905,-0.016580839502215314
0.9075,-0.016670198859523148
0.91,-0.016759162191834782
0.9125,-0.016847722487590294
0.915,-0.01693587272409205
0.9175,-0.01702360586789775
0.92,-0.017110914875216356
0.9225,-0.017197792692307097
0.925,-0.017284232255881455
0.9275,-0.01737022649350814
0.93,-0.017455768324020973
0.9325,-0.017540850657929763
0.935,-0.017625466397834154
0.9375,-0.01770960843884055
0.94,-0.017793269668981846
0.9425,-0.017876442969639958
0.945,-0.017959121215971093
0.9475,-0.01804129727733384
0.95,-0.018122964017720223
0.9525,-0.018204114296189653
0.955,-0.0182847409673057
0.9575,-0.018364836881575645
0.96,-0.018444394885892636
0.9625,-0.018523407823980643
0.965,-0.018601868536842175
0.9675,-0.018679769863208875
0.97,-0.01875710463999492
0.9725,-0.018833865702753246
0.975,-0.01891004588613453
0.9775,-0.018985638024348838
0.98,-0.019060634951629955
0.9825,-0.01913502950270231
0.985,-0.019208814513250617
0.9875,-0.019281982820392205
0.99,-0.01935452726315206
0.9925,-0.019426440682940332
0.995,-0.019497715924032422
0.9975,-0.019568345834051554
1.0,-0.019638323264453944
1.0025,-0.019707641071016458
1.005,-0.019776292114326886
1.0075,-0.019844269260276805
1.01,-0.0199115653805571
1.0125,-0.01997817335315585
1.015,-0.020044086062858662
1.0175,-0.020109296401751357
1.02,-0.020173797269724916
1.0225,-0.020237581574982778
1.025,-0.020300642234550473
1.0275,-0.020362972174787726
1.03,-0.020424564331902928
1.0325,-0.020485411652469872
1.035,-0.020545507093946844
1.0375,-0.020604843625198026
1.04,-0.020663414227017115
1.0425,-0.020721211892653066
1.045,-0.020778229628338005
1.0475,-0.020834460453817424
1.05,-0.020889897402882524
1.0525,-0.02094453352390467
1.055,-0.020998361880371883
1.0575,-0.021051375551427404
1.06,-0.021103567632410433
1.0625,-0.021154931235398987
1.065,-0.021205459489754826
1.0675,-0.02125514554267025
1.07,-0.021303982559716706
1.0725,-0.02135196372539529
1.075,-0.021399082243689013
1.0775,-0.021445331338616872
1.08,-0.021490704254789827
1.0825,-0.02153519425796867
1.085,-0.021578794635623736
1.0875,-0.021621498697496324
1.09,-0.021663299776161944
1.0925,-0.021704191227595267
1.095,-0.021744166431736822
1.0975,-0.02178321879306126
1.1,-0.021821341741147193
1.1025,-0.021858528731248543
1.105,-0.02189477324486751
1.1075,-0.021930068790329216
1.11,-0.02196440890335811
1.1125,-0.02199778714765609
1.115,-0.022030197115482115
1.1175,-0.022061632428232843
1.12,-0.02209208673702393
1.1225,-0.02212155372327175
1.125,-0.02215002709927572
1.1275,-0.02217750060880175
1.13,-0.022203968027667786
1.1325,-0.022229423164332334
1.135,-0.02225385986048675
1.1375,-0.022277271991651
1.14,-0.02229965346777149
1.1425,-0.022320998233818338
1.145,-0.022341300270378502
1.1475,-0.022360553594242123
1.15,-0.0223787522589815
1.1525,-0.022395890355526027
1.155,-0.022411962012740524
1.1575,-0.022426961398017618
1.16,-0.022440882717894305
1.1625,-0.022453720218697158
1.165,-0.02246546818720945
1.1675,-0.022476120951339645
1.17,-0.02248567288075848
1.1725,-0.022494118387469477
1.175,-0.0225014519262903
1.1775,-0.022507667995253684
1.18,-0.022512761135980875
1.1825,-0.022516725934123807
1.185,-0.0225195570199932
1.1875,-0.022521249069465524
1.19,-0.022521796805178657
1.1925,-0.02252119499789133
1.195,-0.022519438467731544
1.1975,-0.022516522084958555
1.2,-0.02251244076988863
1.2025,-0.02250718949184447
1.205,-0.022500763267384326
1.2075,-0.022493157158561716
1.21,-0.02248436627237443
1.2125,-0.022474385762635496
1.215,-0.022463210835014298
1.2175,-0.02245083675487536
1.22,-0.022437258855971365
1.2225,-0.02242247254653703
1.225,-0.022406473308650254
1.2275,-0.022389256687674938
1.23,-0.022370818271630972
1.2325,-0.02235115366515035
1.235,-0.02233025846793499
1.2375,-0.022308128271024946
1.24,-0.022284758683014546
1.2425,-0.022260145390618744
1.245,-0.022234284243759103
1.2475,-0.022207171337874816
1.25,-0.02217880305214485
1.2525,-0.022149176000493
1.255,-0.022118286870393352
1.2575,-0.022086132165010666
1.26,-0.022052707919984052
1.2625,-0.022018009518649673
1.265,-0.02198203175131439
1.2675,-0.0219447692274528
1.27,-0.021906217139307783
1.2725,-0.021866372203562162
1.275,-0.021825233423518248
1.2775,-0.021782802200207837
1.28,-0.02173908137206216
1.2825,-0.021694073047320087
1.285,-0.021647775604200843
1.2875,-0.021600180849914108
1.29,-0.021551272810356806
1.2925,-0.021501029657788703
1.295,-0.021449429605888675
1.2975,-0.02139646013849858
1.3,-0.02134212795971999
1.3025,-0.021286465231147245
1.305,-0.021229526971502915
1.3075,-0.02117137590776824
1.31,-0.021112055082158996
1.3125,-0.0210515546473907
1.315,-0.02098978573200767
1.3175,-0.020926578071431907
1.32,-0.0208617159394237
1.3225,-0.020795016465835224
1.325,-0.02072643610647905
1.3275,-0.020656169320124183
1.33,-0.02058468705902149
1.3325,-0.020512662458141182
1.335,-0.02044075635937429
1.3375,-0.020369288088651107
1.34,-0.02029788704009362
1.3425,-0.020225283762946564
1.345,-0.020149420737563123
1.3475,-0.020068008958332238
1.35,-0.01997951057262295
1.3525,-0.019884309429324044
1.355,-0.01978560587859748
1.3575,-0.019689445239405953
1.36,-0.019603378273717827
1.3625,-0.019533635054592383
1.365,-0.019481350054276463
1.3675,-0.019439140694026413
1.37,-0.01938990290491689
1.3725,-0.019309658010437138
1.375,-0.019175347159911683
1.3775,-0.018976567241642216
1.38,-0.01872775821796611
1.3825,-0.01847516706376384
1.385,-0.018292259311981116
1.3875,-0.018259305684952633
1.39,-0.018428164210353985
1.3925,-0.018781054864697874
1.395,-0.01919999916770689
1.3975,-0.019467795131762684
1.4,-0.019317804916753098
1.4025,-0.018535808438853704
1.405,-0.01709366871914198
1.4075,-0.015267658635182932
1.41,-0.013675189639149429
1.4125,-0.013166043936521264
1.415,-0.014538993164287476
1.4175,-0.01812325149509692
1.42,-0.023352292409877635
1.4225,-0.028533434486386827
1.425,-0.03103675653516253
1.4275,-0.028050637942596303
1.43,-0.017862145104407846
1.4325,-0.001348267593714701
1.435,0.01690414482655292
1.4375,0.028561636934762567
1.44,0.02315239038739734
1.4425,-0.008629315261511691
1.445,-0.0706818966997911
1.4475,-0.1579242747426188
1.45,-0.2554009000937363
1.4525,-0.3414650272597989
1.455,-0.3946269887002355
1.4575,-0.40144132446160763
1.46,-0.36184299159686273
1.4625,-0.2895995153700174
1.465,-0.2080911995414116
1.4675,-0.14354153352996166
1.47,-0.11812291125508069
1.4725,-0.14459563889048138
1.475,-0.2232961498518475
1.4775,-0.3418030344593662
1.48,-0.47731285803311047
1.4825,-0.6014067434602035
1.485,-0.6864376007405277
1.4875,-0.7123019316102563
1.49,-0.671999257481078
1.4925,-0.5742990057897258
1.495,-0.44225603988963436
1.4975,-0.30736631215664856
1.5,-0.20063274236362774
1.5025,-0.1431706793270142
1.505,-0.13957218379048272
1.5075,-0.17663179906754684
1.51,-0.22824270370713715
1.5125,-0.2649171976155941
1.515,-0.26447290427982373
1.5175,-0.2198388549677555
1.52,-0.14100098766829164
1.5225,-0.05045862298430782
1.525,0.025780392604445188
1.5275,0.06791132623377544
1.53,0.06899789765250314
1.5325,0.03642279849232668
1.535,-0.0118146931724856
1.5375,-0.054079121186053666
1.54,-0.07264660016472144
1.5425,-0.059220483091071134
1.545,-0.016676295330088013
1.5475,0.04324548832731295
1.55,0.10493941289533563
1.5525,0.15421697031966322
1.555,0.1816270640741435
1.5575,0.18293811565901555
1.56,0.15772596273523012
1.5625,0.10810663930248814
1.565,0.03914092312644517
1.5675,-0.03938918632103628
1.57,-0.1118223023941294
1.5725,-0.15822614782932054
1.575,-0.15941142658568552
1.5775,-0.10389550264885522
1.58,0.006055327521084351
1.5825,0.15226537938214227
1.585,0.3040561203225121
1.5875,0.4266479301452882
1.59,0.4916434960634933
1.5925,0.4854989884373327
1.595,0.4126650369152026
1.5975,0.2924686440084878
1.6,0.15154252258738432
1.6025,0.015315857146039193
1.605,-0.09800546139561876
1.6075,-0.1792470581914677
1.61,-0.22646856406490964
1.6125,-0.24183091286026065
1.615,-0.22952280892104424
1.6175,-0.19576378847632206
1.62,-0.15001779666858403
1.6225,-0.105486180346127
1.625,-0.0774058736876388
1.6275,-0.07924628336367709
1.63,-0.11842990513332322
1.6325,-0.1936765401847988
1.635,-0.29523583046147367
1.6375,-0.40769193394086484
1.64,-0.5136667733589458
1.6425,-0.5964178081039991
1.645,-0.6401868251379961
1.6475,-0.6286144401658255
1.65,-0.5426511898232116
1.6525,-0.3595931273941866
1.655,-0.05430039666060258
1.6575,0.39711576355376205
1.66,1.0114079998707757
1.6625,1.7906605176839274
1.665,2.713934181993246
1.6675,3.7296418136641702
1.67,4.751533269382366
1.6725,5.662268032459192
1.675,6.327858889118937
1.6775,6.622902336906185
1.68,6.461502507440564
1.6825,5.8247196208326955
1.685,4.7746383666079035
1.6875,3.448469618359365
1.69,2.0322629723051215
1.6925,0.7205559601300463
1.695,-0.32672650402342307
1.6975,-1.017426614162238
1.7,-1.3407014789505476
1.7025,-1.357925010308146
1.705,-1.1756116214794183
1.7075,-0.9107036690536967
1.71,-0.6600005478813501
1.7125,-0.4824001717637078
1.715,-0.39662974964455966
1.7175,-0.3911017776810339
1.72,-0.4390402993516476
1.7225,-0.5120886327217539
1.725,-0.5883654144509728
1.7275,-0.6544915616354676
1.73,-0.7037020723774423
1.7325,-0.7329196158599891
1.735,-0.740843567699813
1.7375,-0.7276443787735033
1.74,-0.6956585266542746
1.7425,-0.6499503714339945
1.745,-0.5977372573015934
1.7475,-0.5463682189449837
1.75,-0.5005931150972333
1.7525,-0.4606953403940656
1.755,-0.42296924600860947
1.7575,-0.3827932752432492
1.76,-0.338851965597226
1.7625,-0.29603721640844405
1.765,-0.2649974922403355
1.7675,-0.25804191159976864
1.77,-0.28312266120292373
1.7725,-0.33874612488493916
1.775,-0.41233370995609464
1.7775,-0.48302539231434766
1.78,-0.5279967686947574
1.7825,-0.5299182017220864
1.785,-0.4827629219396171
1.7875,-0.39384712166897223
1.79,-0.28145822315984886
1.7925,-0.16911034540572867
1.795,-0.07864274524830565
1.7975,-0.024563642843567293
1.8,-0.011303775054723339
1.8025,-0.03388091040536128
1.805,-0.08135636636672593
1.8075,-0.14157822349122823
1.81,-0.20522655522481364
1.8125,-0.2674712535178167
1.815,-0.32677119762772194
1.8175,-0.381898740527947
1.82,-0.42916528165846607
1.8225,-0.4615364999843659
1.825,-0.4701931997709081
1.8275,-0.4478332657528599
1.83,-0.3921766107056556
1.8325,-0.308011623643812
1.835,-0.20677806774633817
1.8375,-0.10386192040481212
1.84,-0.014846043717258384
1.8425,0.047748297531928385
1.845,0.07632287938813612
1.8475,0.0687673622422635
1.85,0.028429683121604862
1.8525,-0.03600145387789505
1.855,-0.11092832076369712
1.8575,-0.17941140691706456
1.86,-0.22454082743866968
1.8625,-0.2342743506991575
1.865,-0.2061004390470312
1.8675,-0.1492062662290096
1.87,-0.08244768559559033
1.8725,-0.028222579389452752
1.875,-0.0044148643103379594
1.8775,-0.01771227932802341
1.88,-0.06115459871783466
1.8825,-0.1170007782947927
1.885,-0.16376614637441042
1.8875,-0.18450892655448997
1.89,-0.17289128651871097
1.8925,-0.134544840825066
1.895,-0.08344617860207668
1.8975,-0.03526990611389612
1.9,-0.0008863948840692801
1.9025,0.01718882824161179
1.905,0.02417376959720689
1.9075,0.028977702364866065
1.91,0.03894730839110874
1.9125,0.05598038429368518
1.915,0.07579823117260762
1.9175,0.09059667432774487
1.92,0.09361543635070146
1.9225,0.08318631895031607
1.925,0.06410910550109758
1.9275,0.045632759870043144
1.93,0.03707769968101634
1.9325,0.04327823397011109
1.935,0.06203461875564986
1.9375,0.08473522827696198
1.94,0.09980946154685776
1.9425,0.09743925358859831
1.945,0.07352387638020678
1.9475,0.03133192379635919
1.95,-0.019732747716280304
1.9525,-0.067697334746586
1.955,-0.10244866464180871
1.9575,-0.11917343496634042
1.96,-0.11939993930136102
1.9625,-0.10942032056196499
1.965,-0.09715835787251154
1.9675,-0.08910264756251844
1.97,-0.08848824940449912
1.9725,-0.09501327416621992
1.975,-0.10577646071576309
1.9775,-0.11705951140417346
1.98,-0.126640677647737
1.9825,-0.13603598096700303
1.985,-0.1515543884184026
1.9875,-0.18302010251731554
1.99,-0.23992464547977002
1.9925,-0.3262226177202215
1.995,-0.4360251724071451
1.9975,-0.5524489900300775
2.0,-0.6508991818716467
2.0025,-0.7064413351650257
2.005,-0.7030279680676154
2.0075,-0.6408798118508865
2.01,-0.5383202818699757
2.0125,-0.426431999083116
2.015,-0.33831113437866656
2.0175,-0.2974804846702197
2.02,-0.310406263819584
2.0225,-0.36586277453456434
2.025,-0.44057538171137045
2.0275,-0.5080751237583186
2.03,-0.547106796515101
2.0325,-0.5470078603534517
2.035,-0.5091515724662486
2.0375,-0.4448937813784272
2.04,-0.3712367711319249
2.0425,-0.30579178847070504
2.045,-0.2625889444040911
2.0475,-0.24969245505746995
2.05,-0.2686310010715343
2.0525,-0.31498749310134333
2.055,-0.37952617858515786
2.0575,-0.44967652506708344
2.06,-0.5114562946093679
2.0625,-0.5518090091673321
2.065,-0.5610823266197844
2.0675,-0.5351884501865433
2.07,-0.47691362248165303
2.0725,-0.3959189238804083
2.075,-0.30720342307361026
2.0775,-0.2281094828822066
2.08,-0.1743159198030994
2.0825,-0.15571506147433442
2.085,-0.17346667240301475
2.0875,-0.21951554892339467
2.09,-0.2791783615847915
2.0925,-0.33618265423449417
2.095,-0.378334798325807
2.0975,-0.40147810701246495
2.1,-0.4099702777404522
2.1025,-0.4134044035089612
2.105,-0.42103507978415794
2.1075,-0.43649512382453143
2.11,-0.4553307737326497
2.1125,-0.4666373248808905
2.115,-0.4582075818273257
2.1175,-0.42297098331316674
2.12,-0.3638096798401659
2.1225,-0.29436379784132677
2.125,-0.23502028719505022
2.1275,-0.2053921880712056
2.13,-0.21639719780312888
2.1325,-0.26557799477107635
2.135,-0.3380032250415026
2.1375,-0.41237449462587417
2.14,-0.46932772296279507
2.1425,-0.49800059155559545
2.145,-0.49825314475279925
2.1475,-0.478429195228022
2.15,-0.450561153569528
2.1525,-0.42548192395363976
2.155,-0.40960159162362136
2.1575,-0.4039326118161748
2.16,-0.40499095530954704
2.1625,-0.4067339153789142
2.165,-0.4026685687841138
2.1675,-0.3875112218280791
2.17,-0.3581482362134149
2.1725,-0.314026115706858
2.175,-0.25732769240263315
2.1775,-0.1931745784200464
2.18,-0.12961154070745357
2.1825,-0.07665619692905176
2.185,-0.04382501397369555
2.1875,-0.036470445489657353
2.19,-0.05243055581955747
2.1925,-0.0809721430771735
2.195,-0.10527248229652635
2.1975,-0.10802823315034199
2.2,-0.07810434119517314
2.2025,-0.015389214046493776
2.205,0.06834964200875945
2.2075,0.15312196422141264
2.21,0.2174752010161066
2.2125,0.24570085156441085
2.215,0.23280802700286207
2.2175,0.18573088569928278
2.22,0.1208428438942853
2.2225,0.05905879876417121
2.225,0.02019834236731779
2.2275,0.01800629178558422
2.23,0.0567224192216888
2.2325,0.1297459816756858
2.235,0.22079537194219018
2.2375,0.30768377421877013
2.24,0.36810242902407386
2.2425,0.3858359658435562
2.245,0.35533536176507763
2.2475,0.28306224139473535
2.25,0.18526643768404888
2.2525,0.08313556797473921
2.255,-0.0030088428595301648
2.2575,-0.05873049453203018
2.26,-0.07846579465329959
2.2625,-0.06606395531537396
2.265,-0.03328862368981481
2.2675,0.0028860400862095966
2.27,0.02348251816475597
2.2725,0.010954753147344941
2.275,-0.047166507880250445
2.2775,-0.15463144851218055
2.28,-0.30362756844732525
2.2825,-0.47410697265687046
2.285,-0.6366218944413172
2.2875,-0.7589068270784254
2.29,-0.8145665479417442
2.2925,-0.7906553800513271
2.295,-0.6907629973373076
2.2975,-0.5317098541884895
2.3,-0.33443360573117376
2.3025,-0.11208495120855598
2.305,0.14016934638825326
2.3075,0.44922725835050725
2.31,0.8593537816321422
2.3125,1.4188332824299406
2.315,2.160903936508766
2.3175,3.0839203072957906
2.32,4.13664488546358
2.3225,5.214362028446136
2.325,6.169765570389239
2.3275,6.83896588597877
2.33,7.0780507516103945
2.3325,6.8010779802049734
2.335,6.008164132910942
2.3375,4.79381983498665
2.34,3.3309774305262922
2.3425,1.833779525167863
2.345,0.5093547486707881
2.3475,-0.48738413459832797
2.35,-1.0829683828547314
2.3525,-1.2912216803978263
2.355,-1.1962058787882568
2.3575,-0.9199684520919096
2.36,-0.586679799039975
2.3625,-0.29410286217570347
2.365,-0.09898070572737595
2.3675,-0.01708352512648162
2.37,-0.033754680414203736
2.3725,-0.1184849270595258
2.375,-0.23769186892699518
2.3775,-0.362553578575166
2.38,-0.4717981806267263
2.3825,-0.5513802390844628
2.385,-0.5934213100065717
2.3875,-0.59591268174085
2.39,-0.5632057107903626
2.3925,-0.5061460881290397
2.395,-0.44056186630428285
2.3975,-0.38377223911055675
2.4,-0.350119504869236
2.4025,-0.3472586426753915
2.405,-0.3746289001258219
2.4075,-0.4244879499337709
2.41,-0.4847716716549397
2.4125,-0.5424460213463086
2.415,-0.5862091384363037
2.4175,-0.6081486170695256
2.42,-0.604639414264347
2.4225,-0.5768729182850281
2.425,-0.5310070692101188
2.4275,-0.47756784060022145
2.43,-0.4298134373138941
2.4325,-0.40112872426178625
2.435,-0.4017704302867102
2.4375,-0.43544788240675725
2.44,-0.4965977643703779
2.4425,-0.5696982525570383
2.445,-0.6319273800358354
2.4475,-0.6594186697420812
2.45,-0.6356188128793118
2.4525,-0.5587425802485296
2.455,-0.4449305192509096
2.4575,-0.3248411841508809
2.46,-0.23387846979735133
2.4625,-0.19923116026513102
2.465,-0.22893057637981493
2.4675,-0.3078419847539147
2.47,-0.4027002237756527
2.4725,-0.47431403989866994
2.475,-0.49192260105638913
2.4775,-0.44388700441961815
2.48,-0.3407199241504152
2.4825,-0.20995320015582516
2.485,-0.08579038563826746
2.4875,0.0017914554862585232
2.49,0.0345070568058859
2.4925,0.00814384436237787
2.495,-0.06934686383402736
2.4975,-0.1819290705652889
2.5,-0.3097152973111399
2.5025,-0.4323381740448717
2.505,-0.5314821356981659
2.5075,-0.5930285291678516
2.51,-0.6089933882636003
2.5125,-0.5788666395535518
2.515,-0.5096689466624151
2.5175,-0.4143215700539625
2.52,-0.30860000749723904
2.5225,-0.2075836548706468
2.525,-0.12275290658905273
2.5275,-0.060560887913432025
2.53,-0.022541677179943695
2.5325,-0.006274677538775741
2.535,-0.006367691253245059
2.5375,-0.015145680834412959
2.54,-0.023385689983886987
2.5425,-0.021627212524041192
2.545,-0.0022689731171191083
2.5475,0.037864451283831244
2.55,0.09534465531254983
2.5525,0.159574572114434
2.555,0.21484761538495004
2.5575,0.2449927692577673
2.56,0.239127361954705
2.5625,0.19617509524961352
2.565,0.12615370215939156
2.5675,0.04757468807542897
2.57,-0.018136105004257483
2.5725,-0.05320393854090954
2.575,-0.04880058590991346
2.5775,-0.007331331481399744
2.58,0.058983391471238246
2.5825,0.13266515379705945
2.585,0.19696142037273845
2.5875,0.24094292512554058
2.59,0.2617142996137602
2.5925,0.2629878387879538
2.595,0.2509701641559225
2.5975,0.22981619025628866
2.6,0.19906601368078364
2.6025,0.15436312589312895
2.605,0.09098800984132004
2.6075,0.008301001402454228
2.61,-0.08725390379993489
2.6125,-0.18228152515146878
2.615,-0.2599961332221388
2.6175,-0.30591244912698545
2.62,-0.31328932335683485
2.6225,-0.2859596654513671
2.625,-0.23732733404240527
2.6275,-0.18595983420639894
2.63,-0.14951325732711948
2.6325,-0.13923110457283208
2.635,-0.15692747602312498
2.6375,-0.19534307926789185
2.64,-0.24140544156308744
2.6425,-0.2808737545122302
2.645,-0.3026275763291917
2.6475,-0.3013908066052618
2.65,-0.2784637623627348
2.6525,-0.2406855589384022
2.655,-0.19826218301993453
2.6575,-0.16223640249011495
2.66,-0.1422190731148044
2.6625,-0.1446536915104929
2.665,-0.17158629189156552
2.6675,-0.21987882039386472
2.67,-0.2810730607461666
2.6725,-0.3424482854196083
2.675,-0.38977130276623817
2.6775,-0.4115154286571716
2.68,-0.4032294210283095
2.6825,-0.37009689159809983
2.685,-0.32617973062268507
2.6875,-0.2902346366910865
2.69,-0.27953111195385655
2.6925,-0.3039762288441272
2.695,-0.3627249294722941
2.6975,-0.44447074048013663
2.7,-0.5312213052083976
2.7025,-0.6041320233018533
2.705,-0.6493295215013084
2.7075,-0.6617227404145494
2.71,-0.6454971970297976
2.7125,-0.6112006483850092
2.715,-0.570742474053451
2.7175,-0.5325849935359673
2.72,-0.49925626821343466
2.7225,-0.4680523874915776
2.725,-0.4341845727053887
2.7275,-0.3946053988842906
2.73,-0.3507371842996147
2.7325,-0.30905229596672124
2.735,-0.27935935917452404
2.7375,-0.2713876223939776
2.74,-0.2908222520960234
2.7425,-0.33629575783722043
2.745,-0.3986888937917621
2.7475,-0.4632336229028955
2.75,-0.5137089291556792
2.7525,-0.5372022191982438
2.755,-0.5278498833124539
2.7575,-0.488450435829725
2.76,-0.4295041878360902
2.7625,-0.3659776355170382
2.765,-0.3128791373609879
2.7675,-0.2812400120723794
2.77,-0.2759064081808549
2.7725,-0.2956765491327604
2.775,-0.3352942647507284
2.7775,-0.38817963576008774
2.78,-0.44867490411001903
2.7825,-0.5128532280119762
2.785,-0.5775024028021476
2.7875,-0.6377789129230335
2.79,-0.6849964848081724
2.7925,-0.706419546845824
2.795,-0.6882000181205556
2.7975,-0.6209250867107704
2.8,-0.5056055567715049
2.8025,-0.35729208527369805
2.805,-0.20417374922591164
2.8075,-0.0816458480278346
2.81,-0.022718229013255712
2.8125,-0.04753786117929239
2.815,-0.1553322121152657
2.8175,-0.3217467737840094
2.82,-0.503373838771765
2.8225,-0.649168383142997
2.825,-0.7157629380624628
2.8275,-0.6815733023174066
2.83,-0.5543588724579477
2.8325,-0.36902001786763533
2.835,-0.1760925193334276
2.8375,-0.025048844980385593
2.84,0.05147670402588898
2.8425,0.04691812803249904
2.845,-0.019472081646998436
2.8475,-0.11165055753142336
2.85,-0.19076522119214787
2.8525,-0.2287456937033912
2.855,-0.21665815491944795
2.8575,-0.1652538404633799
2.86,-0.09828247365745033
2.8625,-0.041849472016814854
2.865,-0.014260037076617207
2.8675,-0.020082098563157274
2.87,-0.05010536328464816
2.8725,-0.08646896772272748
2.875,-0.11039388619525271
2.8775,-0.10923326400023438
2.88,-0.08013428229498142
2.8825,-0.029305328482267447
2.885,0.032041985681620304
2.8875,0.09265831492539439
2.89,0.1447599367328222
2.8925,0.18487722333049028
2.895,0.2123610713507917
2.8975,0.2269774060326735
2.9,0.2272901772981876
2.9025,0.21083022603192547
2.905,0.17578390874674735
2.9075,0.12294838956576325
2.91,0.05663131438336511
2.9125,-0.016067216005646076
2.915,-0.08722225391715246
2.9175,-0.15041209531799046
2.92,-0.20250314069337144
2.9225,-0.24426017682462275
2.925,-0.27953848432869893
2.9275,-0.3132989615451992
2.93,-0.3492080308046899
2.9325,-0.3878876605413121
2.935,-0.42670137353969795
2.9375,-0.46131544840705335
2.94,-0.4884486906403433
2.9425,-0.5085246839712624
2.945,-0.5266324344798763
2.9475,-0.550595164741362
2.95,-0.5861581346977929
2.9525,-0.6308637796631382
2.955,-0.6691684636745303
2.9575,-0.6711003803783055
2.96,-0.5953971578150491
2.9625,-0.39640841223557405
2.965,-0.03293521365827821
2.9675,0.5230431991958028
2.97,1.2792295251375125
2.9725,2.217956693403689
2.975,3.293041335035856
2.9775,4.4285862932620805
2.98,5.520856907736779
2.9825,6.445433424050189
2.985,7.071802468159189
2.9875,7.285677667349111
2.99,7.015812253571937
2.9925,6.258239717870166
2.995,5.088920912237302
2.9975,3.6574818697101783
3.0,2.160254967407616
3.0025,0.7983276447440668
3.005,-0.267417534830806
3.0075,-0.9502591590341993
3.01,-1.2500736197885516
3.0125,-1.2414037347797977
3.015,-1.0428141704550822
3.0175,-0.7789935594319686
3.02,-0.5481390120545088
3.0225,-0.4036570522242704
3.025,-0.35305386822948975
3.0275,-0.3707145343124423
3.03,-0.4173405245749019
3.0325,-0.45818375247991716
3.035,-0.4744758393081335
3.0375,-0.4660920094903261
3.04,-0.44679533972932745
3.0425,-0.4353755345933942
3.045,-0.44653227199011675
3.0475,-0.4847613007452897
3.05,-0.5430638249655151
3.0525,-0.6063698213568802
3.055,-0.6577873898196027
3.0575,-0.6849203676777783
3.06,-0.6838752399608354
3.0625,-0.6598359039224334
3.065,-0.6244807818916611
3.0675,-0.5915051297481649
3.07,-0.5719262322090306
3.0725,-0.5707342469683121
3.075,-0.5859031620165955
3.0775,-0.6099330854862258
3.08,-0.6331820143125522
3.0825,-0.6475679749109189
3.085,-0.6490937985630609
3.0875,-0.6382508828392205
3.09,-0.618502757163422
3.0925,-0.5940451703856796
3.095,-0.5681670451609041
3.0975,-0.5427847394865017
3.1,-0.5188145085567654
3.1025,-0.4966707488730406
3.105,-0.4763988835399805
3.1075,-0.45739312190141845
3.11,-0.4379758716957335
3.1125,-0.41524991161490216
3.115,-0.3855986733915058
3.1175,-0.34595825817851933
3.12,-0.2955167443194032
3.1225,-0.23705143636665577
3.125,-0.17706561938905285
3.1275,-0.12437092655650979
3.13,-0.0875030243776587
3.1325,-0.07191368988976851
3.135,-0.0780001640957307
3.1375,-0.10073362420199837
3.14,-0.13109373198704907
3.1425,-0.1588989317467437
3.145,-0.17611702527512388
3.1475,-0.17949872199365752
3.15,-0.17153177519960264
3.1525,-0.15928731930142428
3.155,-0.1515349348786951
3.1575,-0.15520651771828659
3.16,-0.1725711872852365
3.1625,-0.20019039191947094
3.165,-0.22999950610906864
3.1675,-0.252081172838716
3.17,-0.25814941027719174
3.1725,-0.2445317612161881
3.175,-0.21356222662030763
3.1775,-0.17283850640978074
3.18,-0.1326122281839059
3.1825,-0.10228523395089287
3.185,-0.08723277719252949
3.1875,-0.08693022361883833
3.19,-0.09488113009571378
3.1925,-0.10039160691051352
3.195,-0.09182248256706609
3.1975,-0.06047891271444579
3.2,-0.0038704336133969968
3.2025,0.07298969991956604
3.205,0.15902248381082554
3.2075,0.24091534898821096
3.21,0.30779498576602793
3.2125,0.3546377754243542
3.215,0.3829356421741405
3.2175,0.39864267665205555
3.22,0.40882202140175955
3.2225,0.4187792954180775
3.225,0.4307508406741342
3.2275,0.44415053837303725
3.23,0.45671306387039884
3.2325,0.4657579974907831
3.235,0.4690025925747318
3.2375,0.46472954069138345
3.24,0.4515872957994236
3.2425,0.42856290961050225
3.245,0.39543371600377236
3.2475,0.3534671562843997
3.25,0.3058239117068788
3.2525,0.2572699884768084
3.255,0.21318197130768418
3.2575,0.1781367561205773
3.26,0.15454902446479646
3.2625,0.1418530583742593
3.265,0.13654577280866925
3.2675,0.1330713880352944
3.27,0.1252648313249729
3.2725,0.10798587218584228
3.275,0.07855343497662434
3.2775,0.03756989790897952
3.28,-0.01116035144141681
3.2825,-0.06159650113148535
3.285,-0.1069775367834009
3.2875,-0.1414880660944554
3.29,-0.16174147398964697
3.2925,-0.16768575474118425
3.295,-0.1624594278208563
3.2975,-0.1510503645133763
3.3,-0.13835105196776246
3.3025,-0.12773432877787314
3.305,-0.12098811842675401
3.3075,-0.11946305732493984
3.31,-0.12539206630637006
3.3125,-0.14225932928047494
3.315,-0.17379675358486976
3.3175,-0.22200785074326984
3.32,-0.28506135330473176
3.3225,-0.3560070923647029
3.325,-0.4231989776448404
3.3275,-0.4729225710991165
3.33,-0.49385397654769636
3.3325,-0.4818692828246372
3.335,-0.4430207530429367
3.3375,-0.3928328681531604
3.34,-0.3515661267508055
3.3425,-0.3370574025408077
3.345,-0.3580239916060532
3.3475,-0.41056232902608625
3.35,-0.47915997154611417
3.3525,-0.5417198631347806
3.355,-0.5767191278697282
3.3575,-0.5701004139848888
3.36,-0.5197942743714523
3.3625,-0.4366177055070909
3.365,-0.34133393379644195
3.3675,-0.2586680959811398
3.37,-0.20998337382541513
3.3725,-0.20691814658970498
3.375,-0.24813692902880646
3.3775,-0.32029865432963767
3.38,-0.4028231972644479
3.3825,-0.47470368058651413
3.385,-0.5209549409542171
3.3875,-0.5365467559583111
3.39,-0.5267442804565806
3.3925,-0.5041358476574651
3.395,-0.4836478152894834
3.3975,-0.47729570884702466
3.4,-0.4903835154329943
3.4025,-0.52034313774865
3.405,-0.5584005013135361
3.4075,-0.5931346240128824
3.41,-0.6143720499092215
3.4125,-0.6159942617881451
3.415,-0.5968809283807216
3.4175,-0.5600008753796087
3.42,-0.5103636963503474
3.4225,-0.4529510095412996
3.425,-0.3916349295127067
3.4275,-0.3294343356723226
3.43,-0.26960381081558266
3.4325,-0.21656254050025425
3.435,-0.17587828906241018
3.4375,-0.15319894750769888
3.44,-0.15263922825489737
3.4425,-0.1753624555658965
3.445,-0.21895875305387916
3.4475,-0.2778172307980083
3.45,-0.34419723331107743
3.4525,-0.4094619060437902
3.455,-0.4651575881458694
3.4575,-0.5040348579546188
3.46,-0.5212247695785347
3.4625,-0.5154874071992631
3.465,-0.49006426054197505
3.4675,-0.4525416667465555
3.47,-0.413378975298951
3.4725,-0.3832786631464605
3.475,-0.3701346772817224
3.4775,-0.3765788090566816
3.48,-0.39898565530695856
3.4825,-0.42828779825970864
3.485,-0.45233300655955877
3.4875,-0.45904434178288983
3.49,-0.4395176080492762
3.4925,-0.39037660796029977
3.495,-0.3149371553261218
3.4975,-0.22284468928180282
3.5,-0.12803713701448127
3.5025,-0.04537432177662186
3.505,0.013111723451249287
3.5075,0.041128106433167416
3.51,0.03929574430286356
3.5125,0.014369837509727737
3.515,-0.023058756008769787
3.5175,-0.061567595433952134
3.52,-0.09171201896278859
3.5225,-0.10784143471771863
3.525,-0.10840324668184638
3.5275,-0.09477371863877342
3.53,-0.06936391090910903
3.5325,-0.034110840771776556
3.535,0.009872878738325654
3.5375,0.06150870071559969
3.54,0.11851777887987018
3.5425,0.17661845750935123
3.545,0.22968051902848416
3.5475,0.2707732234910713
3.55,0.29362268444639117
3.5525,0.2939245254555391
3.555,0.27015482665811746
3.5575,0.22381197268622435
3.56,0.15921043068926669
3.5625,0.08291382920089477
3.565,0.0027787244835373068
3.5675,-0.07334869422827904
3.57,-0.13898619249479363
3.5725,-0.1899882911885178
3.575,-0.2248765663913847
3.5775,-0.2445806052118352
3.58,-0.2518539298641543
3.5825,-0.2506650673062164
3.585,-0.24577831317969936
3.5875,-0.24256362932143027
3.59,-0.2468414247727518
3.5925,-0.264406036711093
3.595,-0.29998502224807116
3.5975,-0.3558390159757181
3.6,-0.43068714644324646
3.6025,-0.5196461096872794
3.605,-0.6152247958285032
3.6075,-0.7086042205352024
3.61,-0.7901715402760274
3.6125,-0.848787217226713
3.615,-0.8700911566276207
3.6175,-0.8347043924371219
3.62,-0.7173047300396501
3.6225,-0.4874736607612528
3.625,-0.11299137949268732
3.6275,0.43431772496355764
3.63,1.1709294831204828
3.6325,2.093429508449662
3.635,3.171032957117773
3.6375,4.340070723158892
3.64,5.502387592997694
3.6425,6.530499172310463
3.645,7.282102392442089
3.6475,7.624190503794888
3.65,7.463041567475493
3.6525,6.772433375063928
3.655,5.610648029371009
3.6575,4.118543770034093
3.66,2.4961561907062344
3.6625,0.9623374187014442
3.665,-0.2918820398370869
3.6675,-1.1429335676203305
3.67,-1.5562502335358777
3.6725,-1.5844903453709684
3.675,-1.3444245847197132
3.6775,-0.9805589642861239
3.68,-0.6267779347864556
3.6825,-0.3767599625286668
3.685,-0.27005748495836496
3.6875,-0.2951600273247737
3.69,-0.4056451159069749
3.6925,-0.5423569166783979
3.695,-0.6541634457331581
3.6975,-0.7117771192279394
3.7,-0.7121665370815081
3.7025,-0.674084412980305
3.705,-0.627536649936294
3.7075,-0.6013142843747091
3.71,-0.6128023847444373
3.7125,-0.6631296051944869
3.715,-0.7386356672786957
3.7175,-0.8172891247938423
3.72,-0.876961022583128
3.7225,-0.9021211584835227
3.725,-0.8867818634054832
3.7275,-0.8336512687033133
3.73,-0.7511499640191582
3.7325,-0.6502861816048332
3.735,-0.5425641972593318
3.7375,-0.43900315380477234
3.74,-0.3496805915701204
3.7425,-0.28312587339899564
3.745,-0.24517523343391356
3.7475,-0.23739375039262461
3.75,-0.25574281981718555
3.7525,-0.2905213581403537
3.755,-0.3283497797733481
3.7575,-0.3560569367711259
3.76,-0.36522837190140917
3.7625,-0.355500295197054
3.765,-0.3348605016323589
3.7675,-0.31632394053123647
3.77,-0.31202129310739934
3.7725,-0.32718374798869876
3.775,-0.35688859454998234
3.7775,-0.38740214471371
3.78,-0.40191236574267547
3.7825,-0.3883082538808061
3.785,-0.34544332775003217
3.7875,-0.2847000570134525
3.79,-0.22569415356906944
3.7925,-0.18780666968231358
3.795,-0.18144558407913847
3.7975,-0.20323969094053612
3.8,-0.23751298604949225
3.8025,-0.26331105971636043
3.805,-0.26353438672973584
3.8075,-0.23180724884172
3.81,-0.17406098394844965
3.8125,-0.1046221259781256
3.815,-0.03924070017469234
3.8175,0.011407375588281391
3.82,0.04495849924141939
3.8225,0.0664152837376405
3.825,0.08402083891598766
3.8275,0.10420315202828581
3.83,0.12800762538507776
3.8325,0.15051775692736916
3.835,0.16327651792187994
3.8375,0.15845404032794758
3.84,0.13293857952625807
3.8425,0.09067213043566993
3.845,0.04226893169192292
3.8475,0.002055839635071516
3.85,-0.016242481451891767
3.8525,-0.003440814682184323
3.855,0.04292357444450852
3.8575,0.11861026597977169
3.86,0.21444387770153933
3.8625,0.3188536552389772
3.865,0.42011568631646423
3.8675,0.5076341255842539
3.87,0.5724192409733336
3.8725,0.6075998389217337
3.875,0.6097172731148927
3.8775,0.5807308423479906
3.88,0.5297749403882086
3.8825,0.4733344950881178
3.885,0.43285333126312175
3.8875,0.42978208046789185
3.89,0.4793312865997319
3.8925,0.5850535818114863
3.895,0.7362881234552521
3.8975,0.9095084743461028
3.9,1.0732883752849545
3.9025,1.1955061044643351
3.905,1.2508057561638015
3.9075,1.226286641285057
3.91,1.1239271756790943
3.9125,0.9592763127430568
3.915,0.7571219885182002
3.9175,0.5456813889728372
3.92,0.3510316985790336
3.9225,0.193079223102111
3.925,0.08365933964894322
3.9275,0.026629248117679215
3.93,0.01923542665068735
3.9325,0.053814113268616764
3.935,0.11912994793011465
3.9375,0.2012012563328356
3.94,0.283972012088448
3.9425,0.3504559955064955
3.945,0.3848950535296454
3.9475,0.3759526193648218
3.95,0.32010564983379514
3.9525,0.2237006150298326
3.955,0.10224881521462297
3.9575,-0.023370991674125645
3.96,-0.13265639801334939
3.9625,-0.21107454319246333
3.965,-0.2534649869404018
3.9675,-0.2641265661384962
3.97,-0.2537953374481285
3.9725,-0.23495622771757665
3.975,-0.21749451545990978
3.9775,-0.20625765255146325
3.98,-0.20096505194947434
3.9825,-0.1978207215067705
3.985,-0.19172094398823755
3.9875,-0.17814258232109778
3.99,-0.15430267799326303
3.9925,-0.11961939997132318
3.995,-0.0757035786073459
3.9975,-0.026110011506006194
4.0,0.024017384188162908
4.0025,0.0684027843093854
4.005,0.1003143241461176
4.0075,0.11361023870357335
4.01,0.10417432204894646
4.0125,0.07144636210648311
4.015,0.019423752607724953
4.0175,-0.04352995432378334
4.02,-0.10632310598361691
4.0225,-0.15781500953834574
4.025,-0.1896207190882776
4.0275,-0.19802335041904137
4.03,-0.18431533306290873
4.0325,-0.15356414417016995
4.035,-0.11250226871788876
4.0375,-0.06753044002823327
4.04,-0.023506883773083707
4.0425,0.016624430355160796
4.045,0.051744264142678645
4.0475,0.08235935176500032
4.05,0.11025707338318792
4.0525,0.13762912580019845
4.055,0.16543615726117678
4.0575,0.19147061944024
4.06,0.2091937932822517
4.0625,0.20831780162927202
4.065,0.17728781139416078
4.0675,0.10694574354804653
4.07,-0.005738088257046104
4.0725,-0.15495305285247657
4.075,-0.3253071001958997
4.0775,-0.49376250470112726
4.08,-0.6343229674551483
4.0825,-0.7244880438673709
4.085,-0.7514903813729296
4.0875,-0.7160885048405415
4.09,-0.6325018326774484
4.0925,-0.5245379745013715
4.095,-0.419293762342135
4.0975,-0.3404601435949339
4.1,-0.30316224422353877
4.1025,-0.3116430294912099
4.105,-0.3601991306505098
4.1075,-0.4368103508005556
4.11,-0.5280868306160451
4.1125,-0.6236980607471544
4.115,-0.718523060579069
4.1175,-0.81152148381136
4.12,-0.9017524675050369
4.1225,-0.9835951004499874
4.125,-1.0441266834997471
4.1275,-1.0649651488582603
4.13,-1.0287159316310335
4.1325,-0.9275860674858639
4.135,-0.7702354887737314
4.1375,-0.5833846241545763
4.14,-0.40678865625430755
4.1425,-0.28283250581637887
4.145,-0.24408895388018276
4.1475,-0.30302358388554934
4.15,-0.4473755610070663
4.1525,-0.6428220440209443
4.155,-0.8420793143030005
4.1575,-0.9975397487123074
4.16,-1.07357367783249
4.1625,-1.054977011746094
4.165,-0.9495097097796832
4.1675,-0.7844043282562319
4.17,-0.5983163779640478
4.1725,-0.4310063200872521
4.175,-0.31326140936575425
4.1775,-0.25950803231245695
4.18,-0.2651571004198511
4.1825,-0.30961991845377906
4.185,-0.3641428606143909
4.1875,-0.4018083123652265
4.19,-0.4061534317420779
4.1925,-0.3753740282188635
4.195,-0.32082648268889463
4.1975,-0.2607992927205144
4.2,-0.21235915582303996
4.2025,-0.18469704773047485
4.205,-0.17654283444602933
4.2075,-0.1783007951944432
4.21,-0.17749319024612564
4.2125,-0.1648192372941296
4.215,-0.13813284854756977
4.2175,-0.10281044243913813
4.22,-0.06875565080071029
4.2225,-0.04583219667471472
4.225,-0.04005924504063908
4.2275,-0.05223142371902603
4.23,-0.07920933196699816
4.2325,-0.11675620540097924
4.235,-0.1621679688880467
4.2375,-0.2153374224136948
4.24,-0.27795834720568924
4.2425,-0.35155877574532013
4.245,-0.4354131387582792
4.2475,-0.5251473929872255
4.25,-0.6124324195802763
4.2525,-0.6859256993335177
4.255,-0.7335587315834159
4.2575,-0.7460417836250046
4.26,-0.7208576202355905
4.2625,-0.665315121200244
4.265,-0.5970044062548385
4.2675,-0.5405984296882795
4.27,-0.5212450547470152
4.2725,-0.5562635621903151
4.275,-0.647853760457425
4.2775,-0.7795172732027097
4.28,-0.9177213396927715
4.2825,-1.0183938713926426
4.285,-1.0359493613009794
4.2875,-0.9315993814321182
4.29,-0.6782390025135042
4.2925,-0.2610948181296688
4.295,0.32427920890949974
4.2975,1.0734227676745087
4.3,1.9707511849541048
4.3025,2.9828966547429916
4.305,4.050170819862766
4.3075,5.081358402042901
4.31,5.957370905398691
4.3125,6.546844873374204
4.315,6.732378149748645
4.3175,6.441306872769413
4.32,5.671580407340415
4.3225,4.503077445874368
4.325,3.0883111942455916
4.3275,1.6229220631992087
4.33,0.3033039827407497
4.3325,-0.7165351954506348
4.335,-1.3561402008381873
4.3375,-1.618903497580419
4.34,-1.5795199655161656
4.3425,-1.354088943765235
4.345,-1.0636603237996063
4.3475,-0.8033111317796137
4.35,-0.6256574942637539
4.3525,-0.5413912600346136
4.355,-0.5327692255538828
4.3575,-0.571850423808188
4.36,-0.635138973246355
4.3625,-0.70968178986121
4.365,-0.7906498636886095
4.3675,-0.8745288558562495
4.37,-0.9534187693996158
4.3725,-1.0142673997564395
4.375,-1.0433975494072507
4.3775,-1.033481479081417
4.38,-0.988805822816485
4.3825,-0.9256455035522795
4.385,-0.867034574431044
4.3875,-0.8339144991394734
4.39,-0.8364176078450191
4.3925,-0.8691699914083941
4.395,-0.912831299327584
4.3975,-0.9412960090564774
4.4,-0.9314353509462423
4.4025,-0.8713039581583134
4.405,-0.7637700373063346
4.4075,-0.6248003100123849
4.41,-0.47785972686460987
4.4125,-0.34705694281565685
4.415,-0.2514899983300389
4.4175,-0.2021370726520735
4.42,-0.2013163125706865
4.4225,-0.24381736520318528
4.425,-0.3186012353946986
4.4275,-0.41044015941347745
4.43,-0.5016205534122624
4.4325,-0.5742557950580337
4.435,-0.6134796883114357
4.4375,-0.6110148210530625
4.44,-0.5679260523594978
4.4425,-0.49525377518011043
4.445,-0.4117566678410911
4.4475,-0.3389680029688986
4.45,-0.2948510864284635
4.4525,-0.2881423516482711
4.455,-0.3155847885878748
4.4575,-0.3633949001099144
4.46,-0.412610052130301
4.4625,-0.44613757561538386
4.465,-0.4543767119606416
4.4675,-0.4369256633891106
4.47,-0.39996913463311495
4.4725,-0.35130985855091035
4.475,-0.29617137058988263
4.4775,-0.23613715262622575
4.48,-0.17144498500981806
4.4825,-0.10468440014967469
4.485,-0.04308883911609326
4.4875,0.0024065326146655397
4.49,0.021076424000951333
4.4925,0.007270335675271354
4.495,-0.0362071216958591
4.4975,-0.09782882158153208
4.5,-0.1604392661036992
4.5025,-0.206578155475471
4.505,-0.2239585126677048
4.5075,-0.20892211363871124
4.51,-0.16656288262033125
4.5125,-0.10767944342391904
4.515,-0.044083312313806314
4.5175,0.015593906242206919
4.52,0.06784202238364642
4.5225,0.11339848647584327
4.525,0.15440031044360025
4.5275,0.19133526071350795
4.53,0.221587962444902
4.5325,0.24049326394608903
4.535,0.2443919657722216
4.5375,0.23388489123053716
4.54,0.2151178322469637
4.5425,0.1979637392560687
4.545,0.19188930694810502
4.5475,0.2018193828913763
4.55,0.22639191106483744
4.5525,0.25956868900315044
4.555,0.29454345581317803
4.5575,0.32756494786926915
4.56,0.35948937844648765
4.5625,0.39432797680327114
4.565,0.43571225371750977
4.5675,0.4831569023171078
4.57,0.5300057586685533
4.5725,0.5642137665435355
4.575,0.5719814981305266
4.5775,0.5430519679743507
4.58,0.47560115348176235
4.5825,0.3785548952871081
4.585,0.27005850456493785
4.5875,0.17238111126318365
4.59,0.10499734633692849
4.5925,0.07826097514134238
4.595,0.08976762398887823
4.5975,0.1245266242485492
4.6,0.15893270993980296
4.6025,0.1675425818750512
4.605,0.1308764333861277
4.6075,0.04196362068495551
4.61,-0.09061163120218135
4.6125,-0.24456326347968027
4.615,-0.3904288715543241
4.6175,-0.5006885468250019
4.62,-0.5582141564595219
4.6225,-0.5609485280581376
4.625,-0.5212167638943709
4.6275,-0.4602158075137204
4.63,-0.40001035020996795
4.6325,-0.3560649494666316
4.635,-0.3328961713087391
4.6375,-0.3242011093073606
4.64,-0.31720109317454925
4.6425,-0.2993455868496073
4.645,-0.26454814100054586
4.6475,-0.21631085993399668
4.65,-0.16645603819540974
4.6525,-0.13012578065237093
4.655,-0.11933796742473173
4.6575,-0.1379525964879291
4.66,-0.1801700209343151
4.6625,-0.23304550478553493
4.665,-0.28175366447948375
4.6675,-0.3152338165597954
4.67,-0.32980918597441555
4.6725,-0.32937380977342595
4.675,-0.3223302125072294
4.6775,-0.3168851750995183
4.68,-0.31688197183632494
4.6825,-0.3198835781337621
4.685,-0.31810811269716543
4.6875,-0.3016508566402638
4.69,-0.26265613344578836
4.6925,-0.19891465691882587
4.695,-0.11571983078326617
4.6975,-0.025501123691353236
4.7,0.05457818974062168
4.7025,0.10646657304642448
4.705,0.11570913581706621
4.7075,0.07554875592056001
4.71,-0.010535288950474224
4.7125,-0.12882209040340756
4.715,-0.25814788346509765
4.7175,-0.37480365015492617
4.72,-0.45803384114443435
4.7225,-0.494472162472131
4.725,-0.480371596699993
4.7275,-0.4213093928864399
4.73,-0.3297700748573406
4.7325,-0.22151123277599935
4.735,-0.11187828044969218
4.7375,-0.013168333895283792
4.74,0.06628148694351753
4.7425,0.12129090119050014
4.745,0.14809001235088246
4.7475,0.14293991122862537
4.75,0.10236895841576991
4.7525,0.025446765850667533
4.755,-0.08276623052328087
4.7575,-0.20851788372437913
4.76,-0.32952179958377753
4.7625,-0.41914777793427743
4.765,-0.4540509679926125
4.7675,-0.4227319577483553
4.77,-0.3313815937023555
4.7725,-0.2038603605691603
4.775,-0.0749642145195494
4.7775,0.020782540331510974
4.78,0.060415167459091285
4.7825,0.03945969630451192
4.785,-0.027995012958407086
4.7875,-0.11574874820729043
4.79,-0.19564926437149424
4.7925,-0.24742372376710225
4.795,-0.2645259558747377
4.7975,-0.2541227158411259
4.8,-0.23183894494985416
4.8025,-0.21401352414733096
4.805,-0.21094046536831895
4.8075,-0.22361515911104893
4.81,-0.24461646579024054
4.8125,-0.26204970452568643
4.815,-0.2646081800867968
4.8175,-0.2457815860298574
4.82,-0.20578058924339385
4.8225,-0.15067173417596458
4.825,-0.08935146006500931
4.8275,-0.02992151368748818
4.83,0.022787817464326256
4.8325,0.06756065712437209
4.835,0.10527251429837356
4.8375,0.1367282188812683
4.84,0.16123095903150603
4.8425,0.17663307532665445
4.845,0.18068778818353268
4.8475,0.17277840783066384
4.85,0.15489948526007932
4.8525,0.13121431565380282
4.855,0.10637915817976769
4.8575,0.08356594925652149
4.86,0.06326100349548024
4.8625,0.04346093189647288
4.865,0.0212110159573778
4.8675,-0.0051341524634941705
4.87,-0.03391382462036425
4.8725,-0.059491909755457685
4.875,-0.0735496584376649
4.8775,-0.06802793404804836
4.88,-0.03846360745578265
4.8825,0.013770647880331681
4.885,0.08118039033084812
4.8875,0.15173783721925319
4.89,0.21167496208703815
4.8925,0.24866545454784963
4.895,0.25459902112332783
4.8975,0.22724837955880053
4.9,0.17044041764113568
4.9025,0.09282837527315131
4.905,0.005747394492610691
4.9075,-0.07925303519429086
4.91,-0.15267108891150655
4.9125,-0.20863559135538995
4.915,-0.24539456793652034
4.9175,-0.2645739590993859
4.92,-0.2696250839738701
4.9225,-0.2643406277258283
4.925,-0.252251320453456
4.9275,-0.2371270900156696
4.93,-0.22409606446184513
4.9325,-0.22042198792494674
4.935,-0.23492533098952353
4.9375,-0.27549849604997223
4.94,-0.3450948361078347
4.9425,-0.43758871105505043
4.945,-0.5353937661894106
4.9475,-0.610188807268786
4.95,-0.6266612966275044
4.9525,-0.5477803306631398
4.955,-0.33981116061296074
4.9575,0.023777922307439078
4.96,0.5590487080108323
4.9625,1.2678083025937612
4.965,2.132562285990912
4.9675,3.110830401762033
4.97,4.13111071136298
4.9725,5.0938125012586495
4.975,5.880122743330176
4.9775,6.369745465430502
4.98,6.46514921847223
4.9825,6.116538753956379
4.985,5.3398639483353385
4.9875,4.221033569188346
4.99,2.90318116523931
4.9925,1.559125942132895
4.995,0.3560906920379593
4.9975,-0.5776684508611739
5.0,-1.175397517733528
5.0025,-1.4382637471842081
5.005,-1.4254190611748458
5.0075,-1.232087983612314
5.01,-0.9628404256078207
5.0125,-0.7075552134822635
5.015,-0.5257232078334707
5.0175,-0.44148691522052935
5.02,-0.4482979025395983
5.0225,-0.5195143213814225
5.025,-0.6205087026680682
5.0275,-0.7188447846464028
5.03,-0.7908525561065418
5.0325,-0.824427077431266
5.035,-0.8186964575999325
5.0375,-0.7815270034811764
5.04,-0.7258885545027253
5.0425,-0.6659751995628357
5.045,-0.6137635884367402
5.0475,-0.576533783763134
5.05,-0.5557947726401808
5.0525,-0.5478803236188002
5.055,-0.5460508064797863
5.0575,-0.5433663294936388
5.06,-0.5352457512434435
5.0625,-0.520760064846304
5.065,-0.5022639085564351
5.0675,-0.48366198475331196
5.07,-0.4681667505099439
5.0725,-0.4566488429810839
5.075,-0.44746002160088466
5.0775,-0.4378751783597527
5.08,-0.4263717782644759
5.0825,-0.414452373411201
5.085,-0.4069554554065126
5.0875,-0.4105267959387478
5.09,-0.43067912058806795
5.0925,-0.46846907668679894
5.095,-0.5182115977019075
5.0975,-0.5675960406731194
5.1,-0.6008096405102247
5.1025,-0.6039286003092323
5.105,-0.5705100712550878
5.1075,-0.5048433060740282
5.11,-0.42120543690137235
5.1125,-0.3393597514378968
5.115,-0.27829887844277723
5.1175,-0.25080739261787544
5.12,-0.260612239029811
5.1225,-0.30242771131012386
5.125,-0.3640611152976889
5.1275,-0.42944314916567294
5.13,-0.48179352177789836
5.1325,-0.5065637931230187
5.135,-0.49395105132998823
5.1375,-0.44072129110805675
5.14,-0.3510552820997338
5.1425,-0.23621249770619498
5.145,-0.11296248412099849
5.1475,-0.0009370278074449062
5.15,0.08073009346464487
5.1525,0.11696610694255896
5.155,0.09995629325076981
5.1575,0.03136736217150978
5.16,-0.07702861927356441
5.1625,-0.20482777563069018
5.165,-0.3266718278527648
5.1675,-0.41761404128267
5.17,-0.45898718865292226
5.1725,-0.44310274111993336
5.175,-0.375085186099411
5.1775,-0.27086119553576266
5.18,-0.15178607572086739
5.1825,-0.03796340153891352
5.185,0.05703767422811832
5.1875,0.12816402223763007
5.19,0.17736312838410398
5.1925,0.20989878922877897
5.195,0.2304757660116597
5.1975,0.24091678093161828
5.2,0.24028061758117
5.2025,0.2271199754979199
5.205,0.20249319168104724
5.2075,0.17190993826904993
5.21,0.1448767315348207
5.2125,0.13189666999230282
5.215,0.14010940431669647
5.2175,0.16960026581121967
5.22,0.21231557610574167
5.2225,0.2544439446495652
5.225,0.2815159793873619
5.2275,0.2841565428336564
5.23,0.2620824451315246
5.2325,0.2246603449867205
5.235,0.1876930767201568
5.2375,0.16755701293741287
5.24,0.17488381022743177
5.2425,0.21020632853766905
5.245,0.26319947290836015
5.2475,0.31573609684009635
5.25,0.34763887250890685
5.2525,0.3432070256062435
5.255,0.2964375313054871
5.2575,0.213291258699866
5.26,0.11025888640188486
5.2625,0.009630065214541824
5.265,-0.0670766612742551
5.2675,-0.10546244419532115
5.27,-0.10238953035278624
5.2725,-0.06665794644267717
5.275,-0.01607084872696519
5.2775,0.02814428565646749
5.28,0.047819769026812876
5.2825,0.033290910183956024
5.285,-0.01376540246839689
5.2875,-0.08088016395845368
5.29,-0.1485912411006577
5.2925,-0.19644484002971524
5.295,-0.20941875214919728
5.2975,-0.18274323284238775
5.3,-0.12359142424032812
5.3025,-0.04919069605075304
5.305,0.017941648460313143
5.3075,0.056182556220480975
5.31,0.05073107729221307
5.3125,-0.0022425302720309507
5.315,-0.09438267364560549
5.3175,-0.2074294050511373
5.32,-0.318614634676923
5.3225,-0.4075730393299962
5.325,-0.4621912423407585
5.3275,-0.4809393422150379
5.33,-0.4708057350126409
5.3325,-0.4421729153638753
5.335,-0.40337922108985746
5.3375,-0.35753404669791294
5.34,-0.3028034167027117
5.3425,-0.23576221238731562
5.345,-0.1561293214176252
5.3475,-0.07056216213196191
5.35,0.00656359121222711
5.3525,0.056298403303442206
5.355,0.061460414363348204
5.3575,0.013997301775207454
5.36,-0.07956914763618543
5.3625,-0.1972837504376317
5.365,-0.3066800746358054
5.3675,-0.37432837782361883
5.37,-0.37664827554652636
5.3725,-0.3078361811532399
5.375,-0.181916778428945
5.3775,-0.02832901108297468
5.38,0.11717824826758699
5.3825,0.2230959039653182
5.385,0.27060297939454686
5.3875,0.2572761910091532
5.39,0.19531379325714096
5.3925,0.10562576269017919
5.395,0.010433542510099474
5.3975,-0.07298011328870001
5.4,-0.13567468458200485
5.4025,-0.17712313448927078
5.405,-0.20253249097430262
5.4075,-0.21876393712848785
5.41,-0.2305102752729709
5.4125,-0.23811931719003218
5.415,-0.2377434763829763
5.4175,-0.2236635218541226
5.42,-0.1919043408742079
5.4225,-0.14372496079404762
5.425,-0.08738542346031336
5.4275,-0.0370494736707013
5.43,-0.00882239653343906
5.4325,-0.015245529658541587
5.435,-0.060345553406690226
5.4375,-0.13724026656221117
5.44,-0.22946843415938722
5.4425,-0.31588296746909184
5.445,-0.37746303625095007
5.4475,-0.403387975263451
5.45,-0.39384414513017385
5.4525,-0.3584501938891825
5.455,-0.3112498480526381
5.4575,-0.2648339947810751
5.46,-0.22640715534079098
5.4625,-0.19737768685541238
5.465,-0.17607588230005747
5.4675,-0.1616027017929799
5.47,-0.15637108265887922
5.4725,-0.16576062273277198
5.475,-0.19498923868822607
5.4775,-0.24490804684892115
5.48,-0.309053682969409
5.4825,-0.3736580905381615
5.485,-0.42091450967668986
5.4875,-0.43440622349799746
5.49,-0.4047167058947874
5.4925,-0.3330567580060986
5.495,-0.23138889328531556
5.4975,-0.11890800492132506
5.5,-0.016266666683548286
5.5025,0.060222434586010724
5.505,0.10241684500044823
5.5075,0.11120805758784791
5.51,0.09455093749914442
5.5125,0.06371528657493235
5.515,0.029353920283097617
5.5175,-0.001098176378562721
5.52,-0.023932262745214716
5.5225,-0.03787429518028916
5.525,-0.042079358580724084
5.5275,-0.034692057633542064
5.53,-0.012846478924368132
5.5325,0.02580962024914607
5.535,0.08083125476792265
5.5375,0.14723237001715034
5.54,0.21545873684281094
5.5425,0.273419601300118
5.545,0.3098350997053813
5.5475,0.3175468925665364
5.55,0.29560466252415724
5.5525,0.24952254438664476
5.555,0.18965554051771216
5.5575,0.12813174353819412
5.56,0.075276814072857
5.5625,0.036774822010921644
5.565,0.012564577434783111
5.5675,-0.002325080815872499
5.57,-0.015623685382762372
5.5725,-0.03528062220635806
5.575,-0.06720385503708433
5.5775,-0.11348464946522713
5.58,-0.17110725226778034
5.5825,-0.23139706518887668
5.585,-0.28095158505132795
5.5875,-0.30486502703709917
5.59,-0.29220068222436407
5.5925,-0.24214800007069862
5.595,-0.16803177845773157
5.5975,-0.09629144082258316
5.6,-0.059204589656580965
5.6025,-0.083030240109987
5.605,-0.17594604604356573
5.6075,-0.32099609192988166
5.61,-0.47750662159719237
5.6125,-0.5907595752034953
5.615,-0.6059414395639177
5.6175,-0.48051315840728986
5.62,-0.19025568631936016
5.6225,0.272211524460068
5.625,0.9034996962031354
5.6275,1.6945123112039007
5.63,2.629224406311272
5.6325,3.6755242840642075
5.635,4.771967145287968
5.6375,5.818705578048241
5.64,6.6812895987886485
5.6425,7.211622751556516
5.645,7.282879782446319
5.6475,6.827998399082304
5.65,5.867866001647731
5.6525,4.517489596122635
5.655,2.965711619344571
5.6575,1.4334659207610851
5.66,0.12324334504082438
5.6625,-0.824687230182326
5.665,-1.3566499842257678
5.6675,-1.5051662481112542
5.67,-1.3670174039910203
5.6725,-1.06939779237439
5.675,-0.735794432844133
5.6775,-0.4608002934568552
5.68,-0.29808012951571417
5.6825,-0.2607445006846764
5.685,-0.33033164219263894
5.6875,-0.4698467569218054
5.69,-0.6370375031482021
5.6925,-0.795211039089902
5.695,-0.9199064637262226
5.6975,-1.0007449469710132
5.7,-1.0389780757994005
5.7025,-1.0424215000112724
5.705,-1.0201076651847745
5.7075,-0.9788219384015563
5.71,-0.9227195977288398
5.7125,-0.8556890633478716
5.715,-0.7845941305934004
5.7175,-0.7208869884644459
5.72,-0.678917167501861
5.7225,-0.6711649225146632
5.725,-0.7024416852897196
5.7275,-0.765840684875164
5.73,-0.8426632516462258
5.7325,-0.9070490437929338
5.735,-0.9341413466026198
5.7375,-0.9089613969438616
5.74,-0.8325045841966663
5.7425,-0.7224119461763634
5.745,-0.6076595877383081
5.7475,-0.519071803988795
5.75,-0.479027520675602
5.7525,-0.4939373191661145
5.755,-0.552049502030981
5.7575,-0.6274194689737946
5.76,-0.6889304284815855
5.7625,-0.7114550660389988
5.765,-0.6851429504790705
5.7675,-0.6191384218496663
5.77,-0.5380776406749913
5.7725,-0.47274052950385886
5.775,-0.4487070575867793
5.7775,-0.4774829508688577
5.78,-0.5531442128932824
5.7825,-0.6550754303173065
5.785,-0.7551621931787248
5.7875,-0.8266400905886955
5.79,-0.8517494855246539
5.7925,-0.8260761774132263
5.795,-0.7586427974458203
5.7975,-0.668133958900902
5.8,-0.5767394524719723
5.8025,-0.5036918397583834
5.805,-0.4604980639095087
5.8075,-0.4491223909562863
5.81,-0.4632072363758907
5.8125,-0.49129624654940524
5.815,-0.5204674658156787
5.8175,-0.5390544158494058
5.82,-0.5380563904091462
5.8225,-0.5118368049433984
5.825,-0.4590664007025447
5.8275,-0.3842517407358356
5.83,-0.2990343617907355
5.8325,-0.22169110889182111
5.835,-0.17358913718039398
5.8375,-0.1727169635828802
5.84,-0.2262080564038448
5.8425,-0.32505418943588804
5.845,-0.4440277708155737
5.8475,-0.5478714716445372
5.85,-0.6019039513076913
5.8525,-0.5829926730299494
5.855,-0.4866590416499793
5.8575,-0.3278983892820008
5.86,-0.13597506090834366
5.8625,0.05437002848148481
5.865,0.2120090788878659
5.8675,0.3160368819123245
5.87,0.3584920814897429
5.8725,0.34337251957891496
5.875,0.2833355977634029
5.8775,0.19578458390630976
5.88,0.09942424269645554
5.8825,0.011511128075232977
5.885,-0.05432539162745058
5.8875,-0.08963764625050975
5.89,-0.09184696646645704
5.8925,-0.06390192007614941
5.895,-0.012979264917941876
5.8975,0.05143858768453229
5.9,0.11954323562609857
5.9025,0.1826554762091348
5.905,0.233907184872325
5.9075,0.2683451883893796
5.91,0.28285605726441154
5.9125,0.27624114769123664
5.915,0.24957679084790382
5.9175,0.20668243516631526
5.92,0.15414725182515013
5.9225,0.10028988941853294
5.925,0.05293911960909118
5.9275,0.01676506045672669
5.93,-0.008575373158939867
5.9325,-0.02839628847656621
5.935,-0.05076700774751258
5.9375,-0.0828782446691512
5.94,-0.1275191941738938
5.9425,-0.1812811613694309
5.945,-0.23538198421199966
5.9475,-0.27882419679857745
5.95,-0.3025696935377961
5.9525,-0.3030057291710511
5.955,-0.2833018723492258
5.9575,-0.2521144116097155
5.96,-0.2201392656460427
5.9625,-0.19590539971746643
5.965,-0.18265607575159423
5.9675,-0.17793147906814585
5.97,-0.17636783846906834
5.9725,-0.17447464602974855
5.975,-0.17463653561214804
5.9775,-0.18552533608353783
5.98,-0.21796356581157145
5.9825,-0.278063317837647
5.985,-0.3613727400798825
5.9875,-0.4515641265117722
5.99,-0.5249899345558041
5.9925,-0.5594079405943545
5.995,-0.5429302383989155
5.9975,-0.4790036821724822
6.0,-0.3851487179091017
6.0025,-0.28620947450636125
6.005,-0.2053327025743557
6.0075,-0.15658285676189201
6.01,-0.14193353165803277
6.0125,-0.15320185733402106
6.015,-0.17739757785545363
6.0175,-0.20276676941501864
6.02,-0.22291944787550239
6.0225,-0.23769423487686006
6.025,-0.25111804570264706
6.0275,-0.26804676922215925
6.03,-0.29130018065501156
6.0325,-0.32045653626602527
6.035,-0.35244563502786685
6.0375,-0.38317279983855723
6.04,-0.40899499998992916
6.0425,-0.4271426222868752
6.045,-0.4350152008211232
6.0475,-0.4292179740946845
6.05,-0.40563333600584306
6.0525,-0.3613261188527944
6.055,-0.2978130026075097
6.0575,-0.22392874694317857
6.06,-0.15611554289039214
6.0625,-0.11490294101016205
6.065,-0.11822862770383293
6.0675,-0.17402824337492828
6.07,-0.2752253188476563
6.0725,-0.3995514483958707
6.075,-0.5148538975169793
6.0775,-0.5884329248774848
6.08,-0.5973356288420426
6.0825,-0.5360309848054728
6.085,-0.41865890532458044
6.0875,-0.27484016594311245
6.09,-0.14031929099192994
6.0925,-0.04568201350852308
6.095,-0.007170322535915584
6.0975,-0.022784539338029305
6.1,-0.07478351841239061
6.1025,-0.13729955544332448
6.105,-0.18600639874253916
6.1075,-0.20621545370887384
6.11,-0.19659327588583836
6.1125,-0.16755925761231882
6.115,-0.1355667399783291
6.1175,-0.11600245302886655
6.12,-0.11772915393508646
6.1225,-0.14124818589853821
6.125,-0.1806035908663973
6.1275,-0.22744125493959336
6.13,-0.27493422460297784
6.1325,-0.3198392188746918
6.135,-0.3622546062934236
6.1375,-0.4038077765357329
6.14,-0.44541576497325236
6.1425,-0.48555553602109947
6.145,-0.5196107636730734
6.1475,-0.5405375083173453
6.15,-0.5407451461512045
6.1525,-0.5146998978436147
6.155,-0.4614125747285539
6.1575,-0.3857905321964977
6.16,-0.2980094447829788
6.1625,-0.21076221460926808
6.165,-0.13528348501526632
6.1675,-0.0777972628897983
6.17,-0.03790988979580944
6.1725,-0.009529783694812015
6.175,0.01622221695729214
6.1775,0.0473485662673576
6.18,0.08792135263995636
6.1825,0.13668629405171975
6.185,0.18775867473100913
6.1875,0.23308449472024684
6.19,0.26565188581290583
6.1925,0.2821231674079956
6.195,0.2838491996192356
6.1975,0.2760353268739958
6.2,0.26570230401537165
6.2025,0.2595466286050056
6.205,0.2626588499190755
6.2075,0.27841257564359034
6.21,0.3090179547627787
6.2125,0.3557293249080527
6.215,0.41793406886328516
6.2175,0.4913015155242419
6.22,0.5661886377467817
6.2225,0.627759217310218
6.225,0.6585323177809274
6.2275,0.6428713636262292
6.23,0.5719896299618595
6.2325,0.44773115509907885
6.235,0.2836571010157665
6.2375,0.10270474650320063
6.24,-0.06822172318631396
6.2425,-0.20518123747368588
6.245,-0.29333086098294875
6.2475,-0.3301202863180305
6.25,-0.32456412695295817
6.2525,-0.29320686487847897
6.255,-0.2546147159130582
6.2575,-0.22453326411739824
6.26,-0.21321985810926042
6.2625,-0.22530731125514178
6.265,-0.2614686408186967
6.2675,-0.3205800545084834
6.27,-0.40111230481523125
6.2725,-0.5009413354393691
6.275,-0.6154711046898607
6.2775,-0.734753460253144
6.28,-0.8408915167333166
6.2825,-0.9070504671081792
6.285,-0.8987634669442853
6.2875,-0.777307638473405
6.29,-0.5043812769842316
6.2925,-0.04748808082007843
6.295,0.6139296834045156
6.2975,1.4812029112696432
6.3,2.528202593089051
6.3025,3.694004954412957
6.305,4.880020705438078
6.3075,5.955604338800362
6.31,6.77450168214379
6.3125,7.2009729562944305
6.315,7.140277900970926
6.3175,6.565200597338507
6.32,5.5299783266706575
6.3225,4.165870567202299
6.325,2.6577977059816575
6.3275,1.2072353205386037
6.33,-0.00909440257511573
6.3325,-0.8737806544529354
6.335,-1.3476356534375598
6.3375,-1.4688060930091886
6.34,-1.3336576217268166
6.3425,-1.065929654281414
6.345,-0.7834498838514259
6.3475,-0.5716197011754526
6.35,-0.4699721760950697
6.3525,-0.4734408067964202
6.355,-0.5453918835848359
6.3575,-0.6366033972646761
6.36,-0.7038150890718747
6.3625,-0.7227475255500867
6.365,-0.692735327381059
6.3675,-0.6327566398442989
6.37,-0.57125913088734
6.3725,-0.5340786353050446
6.375,-0.5350722822039369
6.3775,-0.5726015347865416
6.38,-0.6324032291056503
6.3825,-0.6948552535688083
6.385,-0.7431510269542231
6.3875,-0.7688932629826868
6.39,-0.7730351616588786
6.3925,-0.7623702083087119
6.395,-0.7438861921195891
6.3975,-0.720187787036951
6.4,-0.6883898496256523
6.4025,-0.6428676613983938
6.405,-0.5801468880516676
6.4075,-0.5031360476918685
6.41,-0.4223441841482044
6.4125,-0.3533389730730662
6.415,-0.31156112267573716
6.4175,-0.3067908169190424
6.42,-0.3395968538271559
6.4225,-0.4011154273263893
6.425,-0.4760480537495678
6.4275,-0.5474941811082202
6.43,-0.6016540919144281
6.4325,-0.6307584980228708
6.435,-0.6335849241115791
6.4375,-0.6140097096872141
6.44,-0.578646136095066
6.4425,-0.5346206833361528
6.445,-0.48817947926027044
6.4475,-0.4442683528477108
6.45,-0.4066071146508114
6.4525,-0.3774486021860109
6.455,-0.35660020558990907
6.4575,-0.3402488485771883
6.46,-0.32088652076155594
6.4625,-0.2894520742432319
6.465,-0.23962652951174906
6.4675,-0.17266875794932757
6.47,-0.1002094872837604
6.4725,-0.04279803603700704
6.475,-0.023757879418032764
6.4775,-0.06024376757847551
6.48,-0.15511403945642394
6.4825,-0.2934036518213851
6.485,-0.4455179465196426
6.4875,-0.5763154430581401
6.49,-0.6564195743893807
6.4925,-0.6710636594251802
6.495,-0.623202115186308
6.4975,-0.5304823474677609
6.5,-0.41814243014448077
6.5025,-0.310910845036614
6.505,-0.22662822699712057
6.5075,-0.1731406794748789
6.51,-0.14857489188412124
6.5125,-0.1439851418222285
6.515,-0.14702427437643922
6.5175,-0.14563796515426952
6.52,-0.1312110579145808
6.5225,-0.10066981343654217
6.525,-0.0569528262395498
6.5275,-0.007508168879800201
6.53,0.03877605097492183
6.5325,0.07497382215864366
6.535,0.09839571367777393
6.5375,0.11093396336217581
6.54,0.11778069522661759
6.5425,0.12556965168508716
6.545,0.14092375813553362
6.5475,0.16971416023391686
6.55,0.2166388509869178
6.5525,0.28448551482491186
6.555,0.3727508335732058
6.5575,0.4759181255178154
6.56,0.5822947143519559
6.5625,0.674555949296792
6.565,0.7328056477614688
6.5675,0.7400146229268235
6.57,0.6884209330253631
6.5725,0.5844213242740864
6.575,0.4493209470389365
6.5775,0.314514516989279
6.58,0.21202904309876508
6.5825,0.16374272358779143
6.585,0.1736044602744504
6.5875,0.22613549754392465
6.59,0.2918769352237559
6.5925,0.3375391843366281
6.595,0.33679311039549537
6.5975,0.2777126625440792
6.6,0.16466995706237383
6.6025,0.014983810467413856
6.605,-0.14745988089318393
6.6075,-0.29886675942419777
6.61,-0.4204483180934096
6.6125,-0.5007885001340775
6.615,-0.5358953879027364
6.6175,-0.5277860001922171
6.62,-0.48265827956230023
6.6225,-0.40950378677817456
6.625,-0.31944408263742624
6.6275,-0.2254019971153298
6.63,-0.14138504242081956
6.6325,-0.08088278059941931
6.635,-0.054446446054601964
6.6375,-0.06704785585289925
6.64,-0.11610607160072545
6.6425,-0.19107275533573548
6.645,-0.27514003419670824
6.6475,-0.3490225382790055
6.65,-0.3960215620193832
6.6525,-0.4068676165424327
6.655,-0.3824611769053311
6.6575,-0.3331086006950587
6.66,-0.2743536579326564
6.6625,-0.22126313075091641
6.665,-0.1837768909819625
6.6675,-0.16491723562112956
6.67,-0.1619343113718243
6.6725,-0.16905649891498734
6.675,-0.18015081483428813
6.6775,-0.19019547127388853
6.68,-0.19548670472499383
6.6825,-0.19334020073446226
6.685,-0.18220420691683156
6.6875,-0.16244915875985624
6.69,-0.13715759942444225
6.6925,-0.1118734132371303
6.695,-0.09287434934676293
6.6975,-0.08463202722180838
6.7,-0.08786115211313113
6.7025,-0.09942025612513423
6.705,-0.11437151644618478
6.7075,-0.12918533809306373
6.71,-0.14407892175349185
6.7125,-0.16257912961032986
6.715,-0.18789346068475532
6.7175,-0.21785229572795353
6.72,-0.2416761141929651
6.7225,-0.2415355549428016
6.725,-0.19966631595715487
6.7275,-0.10859668312235794
6.73,0.020449588705231364
6.7325,0.15604363241993827
6.735,0.25430256103918186
6.7375,0.2739378270913399
6.74,0.19288286867005533
6.7425,0.019515201466771177
6.745,-0.20667500559733837
6.7475,-0.42600341570932343
6.75,-0.577478540042783
6.7525,-0.6187984942558924
6.755,-0.5401756010462326
6.7575,-0.3672227604058836
6.76,-0.15231212343226816
6.7625,0.042178198598513864
6.765,0.1628516265923004
6.7675,0.18030921827474183
6.77,0.09573105813898361
6.7725,-0.06232451436470191
6.775,-0.2489573713821503
6.7775,-0.41753218667031433
6.78,-0.5328613043014323
6.7825,-0.5789130789895335
6.785,-0.559293805631615
6.7875,-0.49160477655108237
6.79,-0.3989658133740769
6.7925,-0.3024976379371318
6.795,-0.21725429633778898
6.7975,-0.1518986077359268
6.8,-0.11059923622339604
6.8025,-0.09502434433569475
6.805,-0.10493572025781729
6.8075,-0.1371959826514935
6.81,-0.18425552670650064
6.8125,-0.2337429232255418
6.815,-0.2703217880120053
6.8175,-0.2797179605138583
6.82,-0.2535039390118252
6.8225,-0.19265920561158958
6.825,-0.10835529693999989
6.8275,-0.019414524309474542
6.83,0.053084048337072816
6.8325,0.09268436148224363
6.835,0.09377938164451295
6.8375,0.06471635975583058
6.84,0.02596048121207547
6.8425,0.003195917204423858
6.845,0.017394326046762623
6.8475,0.07557566373952096
6.85,0.1663587272683149
6.8525,0.26289033392511796
6.855,0.33264255817075045
6.8575,0.35029046771657124
6.86,0.30821839377094723
6.8625,0.22009758836712534
6.865,0.11599324112582257
6.8675,0.03112410783770116
6.87,-0.007017399244191648
6.8725,0.011898218886181668
6.875,0.07836338247559724
6.8775,0.16762633310074182
6.88,0.24942933664096312
6.8825,0.2990833237959679
6.885,0.30570342057806676
6.8875,0.27460181098038916
6.89,0.22327422826908194
6.8925,0.1730980877686937
6.895,0.14050157249472667
6.8975,0.1312479250444354
6.9,0.1398068316145601
6.9025,0.15344270253200543
6.905,0.15872776251550755
6.9075,0.14746429855807439
6.91,0.11961905837896811
6.9125,0.08239435098394654
6.915,0.04625720096430493
6.9175,0.01988965188220282
6.92,0.006168393057081486
6.9225,0.0005436743729327976
6.925,-0.007869079827499698
6.9275,-0.03301087554665142
6.93,-0.08738509468517185
6.9325,-0.17749021971111867
6.935,-0.3003983172900475
6.9375,-0.44266428018466364
6.94,-0.5823438184647652
6.9425,-0.6939451232404854
6.945,-0.7548863142895883
6.9475,-0.7510328366973383
6.95,-0.6787255986836952
6.9525,-0.5417694606112748
6.955,-0.34398235834861424
6.9575,-0.08021233059435631
6.96,0.2699539182444336
6.9625,0.7418911699484372
6.965,1.3770162043022678
6.9675,2.206148551583557
6.97,3.2293106916477066
6.9725,4.398612656441813
6.975,5.611350047123098
6.9775,6.71834200872156
6.98,7.548317786780454
6.9825,7.944037784879378
6.985,7.801306802252285
6.9875,7.099660738190876
6.99,5.914559388185149
6.9925,4.405720851343142
6.995,2.783561656281741
6.9975,1.2629518133991613
7.0,0.01777118684926248
7.0025,-0.8507196386668541
7.005,-1.3237730636682172
7.0075,-1.4530963206110656
7.01,-1.3338514856835268
7.0125,-1.0736198437709916
7.015,-0.7675003882595106
7.0175,-0.4849715897847601
7.02,-0.26828435868674194
7.0225,-0.13782908638264388
7.025,-0.0988615202589751
7.0275,-0.14591563347297348
7.03,-0.2643643672135213
7.0325,-0.43094729341527177
7.035,-0.6156434410188975
7.0375,-0.7861289915233588
7.04,-0.9141485786595877
7.0425,-0.9816808835634341
7.045,-0.9846048594134125
7.0475,-0.9325902760477671
7.05,-0.8454435135335009
7.0525,-0.7473950390915162
7.055,-0.6613233613303284
7.0575,-0.6045330436430382
7.06,-0.58674468795945
7.0625,-0.6099669650962756
7.065,-0.6693522634983305
7.0675,-0.7541871871332697
7.07,-0.8487719466755203
7.0725,-0.9336932538895516
7.075,-0.9882778553452086
7.0775,-0.9944941784291559
7.08,-0.941560822124887
7.0825,-0.8297271084748694
7.085,-0.6716264045791659
7.0875,-0.49031036926307353
7.09,-0.3142220017025476
7.0925,-0.1704714355507207
7.095,-0.07841934604318401
7.0975,-0.04552600461327377
7.1,-0.06669075788412529
7.1025,-0.12713027771912377
7.105,-0.20765219950064048
7.1075,-0.2903946815387561
7.11,-0.36300166162321496
7.1125,-0.4198738323942382
7.115,-0.46036750497614054
7.1175,-0.4851180402197688
7.12,-0.4925105839687107
7.1225,-0.47733413249131335
7.125,-0.4326926056472976
7.1275,-0.35456452563464647
7.13,-0.24678089658208205
7.1325,-0.12361175901323417
7.135,-0.008106278398106476
7.1375,0.07364302648033605
7.14,0.10020543364841183
7.1425,0.0615918625795342
7.145,-0.037169424316157905
7.1475,-0.17653431327563854
7.15,-0.32660689486591493
7.1525,-0.45385034324538115
7.155,-0.5289360315349187
7.1575,-0.5340859090061331
7.16,-0.4680791329596857
7.1625,-0.3472880022076566
7.165,-0.20193487274515362
7.1675,-0.06813298688779891
7.17,0.022221454913623952
7.1725,0.050605481667498814
7.175,0.01698690083679376
7.1775,-0.06093285913199886
7.18,-0.1541147335777092
7.1825,-0.23194390579997268
7.185,-0.2719447455015795
7.1875,-0.2662162703558438
7.19,-0.22264309646171773
7.1925,-0.16073045041646433
7.195,-0.1036609883305176
7.1975,-0.06947404900055766
7.2,-0.06467988172926382
7.2025,-0.08275786882217345
7.205,-0.10797907036927294
7.2075,-0.12267626206903746
7.21,-0.11461667461301066
7.2125,-0.08132464070706559
7.215,-0.02996342884145848
7.2175,0.026354123478606897
7.22,0.07357813804789756
7.2225,0.10093498703829396
7.225,0.1032983331616151
7.2275,0.08170095582243558
7.23,0.04243356934217162
7.2325,-0.004793694619962883
7.235,-0.0492510091168133
7.2375,-0.08179829130561014
7.24,-0.097227761117915
7.2425,-0.09571392330146264
7.245,-0.08285074695838109
7.2475,-0.06823409803897357
7.25,-0.06312392459963113
7.2525,-0.0779256499149041
7.255,-0.11991741798104756
7.2575,-0.19126682804611184
7.26,-0.28748851107766243
7.2625,-0.3970074613127722
7.265,-0.5027243326526661
7.2675,-0.5859490410695987
7.27,-0.6319553498687702
7.2725,-0.6352914357102489
7.275,-0.6025214119444702
7.2775,-0.5507540371733022
7.28,-0.502022171034988
7.2825,-0.47546351949260574
7.285,-0.4802984076366536
7.2875,-0.5123080317551825
7.29,-0.5551270452406255
7.2925,-0.5858921907550598
7.295,-0.5833471740393777
7.2975,-0.5357416521385421
7.3,-0.4458372507450121
7.3025,-0.3310994382447601
7.305,-0.218714148783588
7.3075,-0.1370335794893301
7.31,-0.10656833012725776
7.3125,-0.13385245835793882
7.315,-0.21024665339384443
7.3175,-0.3157082352704055
7.32,-0.4257533999515915
7.3225,-0.5189257152987323
7.325,-0.5822325103180221
7.3275,-0.6130585336660925
7.33,-0.6175675960139184
7.3325,-0.6068996688345986
7.335,-0.5930187788995314
7.3375,-0.5857231058550384
7.34,-0.5913746383549158
7.3425,-0.6129117081164046
7.345,-0.6502519429648083
7.3475,-0.7004717302050414
7.35,-0.7578233297347677
7.3525,-0.8141470329568483
7.355,-0.8601755015996017
7.3575,-0.8876348051179063
7.36,-0.8913234223851847
7.3625,-0.8700902607663289
7.365,-0.826184076240999
7.3675,-0.7634768773495273
7.37,-0.6857599641120141
7.3725,-0.5961699352180085
7.375,-0.4980470628344001
7.3775,-0.39671096133188577
7.38,-0.3011040265768306
7.3825,-0.22409118516119958
7.385,-0.1804910480290218
7.3875,-0.18277356078349688
7.39,-0.23566172298599067
7.3925,-0.3319601722663849
7.395,-0.45197724751222434
7.3975,-0.5676649181176278
7.4,-0.6506306018793223
7.4025,-0.6814022012244689
7.405,-0.6565350180328844
7.4075,-0.5906818020769062
7.41,-0.5124468115000921
7.4125,-0.4551489374799642
7.415,-0.4456581608141233
7.4175,-0.4952917855563777
7.42,-0.5959193761930374
7.4225,-0.7224301737120797
7.425,-0.8405767456379779
7.4275,-0.9176314042379918
7.43,-0.9325074424571711
7.4325,-0.8821298817595736
7.435,-0.781989631773982
7.4375,-0.6607545310330915
7.44,-0.5508930982276586
7.4425,-0.47870076963109737
7.445,-0.45729118937187463
7.4475,-0.48483161434679417
7.45,-0.5479931811301391
7.4525,-0.6282996697746577
7.455,-0.7080193965543367
7.4575,-0.7731376096629422
7.46,-0.813284447698239
7.4625,-0.8206698899698132
7.465,-0.790449295160604
7.4675,-0.7232383177357175
7.47,-0.6281175922578361
7.4725,-0.5232954457705407
7.475,-0.43250769593858834
7.4775,-0.377628582895017
7.48,-0.3703533337940224
7.4825,-0.4067773635299338
7.485,-0.46768965026822906
7.4875,-0.5249323603159282
7.49,-0.5514471850276385
7.4925,-0.5309182640401284
7.495,-0.463073940208629
7.4975,-0.36268054252020854
7.5,-0.2530615296672312
7.5025,-0.15721023716730284
7.505,-0.09024180119119204
7.5075,-0.05593367206272936
7.51,-0.04808040401973817
7.5125,-0.05530875309527088
7.515,-0.06675581985665156
7.5175,-0.07608366613557932
7.52,-0.08251256208227563
7.5225,-0.08915373144550648
7.525,-0.10001810729976043
7.5275,-0.11717696325674976
7.53,-0.13892164200613863
7.5325,-0.15918562917541268
7.535,-0.16837866034907265
7.5375,-0.15576071098822264
7.54,-0.1129903415355113
7.5425,-0.03765156731531187
7.545,0.06482099649507776
7.5475,0.18180570729037096
7.55,0.2964839811880194
7.5525,0.3918262415803539
7.555,0.4539837413287517
7.5575,0.47410650878671684
7.56,0.44863539159191324
7.5625,0.37887315321666587
7.565,0.27064881010666797
7.5675,0.13425878315762896
7.57,-0.01580876465373683
7.5725,-0.16205261251038636
7.575,-0.28638027925239873
7.5775,-0.3735122915080805
7.58,-0.4145170411344396
7.5825,-0.40924269924310425
7.585,-0.36651262391402817
7.5875,-0.30171347971219376
7.59,-0.23256013656288826
7.5925,-0.1746761179418348
7.595,-0.13861549592109806
7.5975,-0.12909639533636097
7.6,-0.1460502693181725
7.6025,-0.18624108609305767
7.605,-0.24408154177801902
7.6075,-0.3109234611653158
7.61,-0.37318909473401235
7.6125,-0.41063660144465
7.615,-0.39626668946076365
7.6175,-0.29870369577153566
7.62,-0.08668881477275325
7.6225,0.2656155716723442
7.625,0.7738447445940815
7.6275,1.439708500295838
7.63,2.2479608492471748
7.6325,3.16343567539334
7.635,4.128179937259642
7.6375,5.0600800756928885
7.64,5.8557404309930945
7.6425,6.400629364193245
7.645,6.587746157818582
7.6475,6.3424226136436745
7.65,5.646844115921168
7.6525,4.555585122666362
7.655,3.194510988160254
7.6575,1.740039856506263
7.66,0.3825955017035348
7.6625,-0.7155785008409749
7.665,-1.455166686737682
7.6675,-1.816175010123549
7.67,-1.8515886418133076
7.6725,-1.6620783560805352
7.675,-1.361863632964554
7.6775,-1.0477977058016414
7.68,-0.7809172235170775
7.6825,-0.583792456302179
7.685,-0.45076450151181247
7.6875,-0.36405568024061624
7.69,-0.30808204213404133
7.6925,-0.27676650754926746
7.695,-0.27267029384405544
7.6975,-0.30044500765968024
7.7,-0.35910372596523316
7.7025,-0.4374118789561373
7.705,-0.5146818845023547
7.7075,-0.5665129684457972
7.71,-0.5728613218180353
7.7125,-0.5251062441940464
7.715,-0.4295160498861872
7.7175,-0.30607439557989774
7.72,-0.18319888496119902
7.7225,-0.08997337728854461
7.725,-0.048070128897266674
7.7275,-0.06564073414243296
7.73,-0.1350199062391709
7.7325,-0.23503304421831386
7.735,-0.33727815650575005
7.7375,-0.41445640540988915
7.74,-0.44809115782807074
7.7425,-0.4331104304371339
7.745,-0.37786846752509173
7.7475,-0.299885405577375
7.75,-0.21911658018163563
7.7525,-0.15127312867132758
7.755,-0.103473600878996
7.7575,-0.0735595431800501
7.76,-0.053066845165369636
7.7625,-0.03245271317139387
7.765,-0.00623795587860196
7.7675,0.024231880905790894
7.77,0.05155117321309554
7.7725,0.06598875728977967
7.775,0.06031345140548072
7.7775,0.03352064641471197
7.78,-0.008053520296924003
7.7825,-0.05258469191157196
7.785,-0.08683044309761803
7.7875,-0.10091271590665596
7.79,-0.09201578689588903
7.7925,-0.06549128329058583
7.795,-0.0327648256056669
7.7975,-0.006707852678035255
7.8,0.003741849135624864
7.8025,-0.00251823023713353
7.805,-0.018061849347702805
7.8075,-0.029864822289518377
7.81,-0.02468230777130685
7.8125,0.005397896571586335
7.815,0.05947996112241905
7.8175,0.127656788212435
7.82,0.19389802612040535
7.8225,0.24087541344687385
7.825,0.2551853307282982
7.8275,0.23145731516396537
7.83,0.17415878590087386
7.8325,0.09653641291969818
7.835,0.017032818090351863
7.8375,-0.045596450743077103
7.84,-0.07680381712575973
7.8425,-0.06904838309243079
7.845,-0.022440451746626507
7.8475,0.056203245486496925
7.85,0.15496196740276266
7.8525,0.2586058865199236
7.855,0.35081288704025315
7.8575,0.41714396217523386
7.86,0.4484941041167922
7.8625,0.4440024537659204
7.865,0.41219812534677347
7.8675,0.36957430382853507
7.87,0.3365245149180839
7.8725,0.3313913480806652
7.875,0.3641906491239778
7.8775,0.43219710900580494
7.88,0.5195131494209972
7.8825,0.6015330131647406
7.885,0.6531066773822756
7.8875,0.6573130295002148
7.89,0.611293305567974
7.8925,0.5269086135721971
7.895,0.42624651745235065
7.8975,0.33396999931876925
7.9,0.2694282940320221
7.9025,0.24124089875554028
7.905,0.24593921606350283
7.9075,0.2706237108283314
7.91,0.29814266958682223
7.9125,0.31265622978277746
7.915,0.3037868157331766
7.9175,0.2685238024014845
7.92,0.21103568666051317
7.9225,0.14103531389236681
7.925,0.07127409411501986
7.9275,0.014504755740047998
7.93,-0.019734000405564014
7.9325,-0.027859562263494075
7.935,-0.013584435586898315
7.9375,0.012955076633339467
7.94,0.03836065132586872
7.9425,0.05042417309601177
7.945,0.042144005948897945
7.9475,0.013781356360113467
7.95,-0.027604730887924558
7.9525,-0.07070209719514017
7.955,-0.1035822531749166
7.9575,-0.11730815172025008
7.96,-0.10849401090443969
7.9625,-0.08015611071826996
7.965,-0.04079346112539549
7.9675,-0.0021964620737825423
7.97,0.02331349859684805
7.9725,0.025662783664314612
7.975,-0.0005100007484186923
7.9775,-0.05403785205941772
7.98,-0.12661263669446413
7.9825,-0.20403080143641328
7.985,-0.26951930714576305
7.9875,-0.3083885394795955
7.99,-0.3123635182791466
7.9925,-0.2819152006070376
7.995,-0.22587395349319467
7.9975,-0.15882703311142013
8.0,-0.09744771293087595
8.0025,-0.05680034628247093
8.005,-0.04723384321176552
8.0075,-0.07216479183582353
8.01,-0.12699544855113465
8.0125,-0.19946953749122054
8.015,-0.27170013799657283
8.0175,-0.3237677179428506
8.02,-0.33828056492820646
8.0225,-0.3048778226610781
8.025,-0.223524127588848
8.0275,-0.10558894430060613
8.03,0.027935248406422804
8.0325,0.15110100115170277
8.035,0.23967639457366832
8.0375,0.27798103322288337
8.04,0.2635739355720653
8.0425,0.20794485910856475
8.045,0.13277516062330044
8.0475,0.06307620646648503
8.05,0.019645216015686154
8.0525,0.013249618336438037
8.055,0.04201160534301791
8.0575,0.09233919979403683
8.06,0.14296508892109533
8.0625,0.17117437380516926
8.065,0.1597824272014849
8.0675,0.10284245213977901
8.07,0.007976472322428891
8.0725,-0.10581028379468643
8.075,-0.21417663906513354
8.0775,-0.2950708481997871
8.08,-0.3351282390564958
8.0825,-0.33276722915107476
8.085,-0.2973272573597619
8.0875,-0.24501602709439965
8.09,-0.19343352541817208
8.0925,-0.1567621574830436
8.095,-0.14323329623672956
8.0975,-0.15536808076901218
8.1,-0.19222488734718404
8.1025,-0.25202254084583087
8.105,-0.33345614781438604
8.1075,-0.43490345163210725
8.11,-0.55215064576525
8.1125,-0.676363679542054
8.115,-0.7940226756306
8.1175,-0.8894550513486328
8.12,-0.9491921168823116
8.1225,-0.9664096651538998
8.125,-0.9435621736596612
8.1275,-0.8919550116552009
8.13,-0.8281564967094601
8.1325,-0.768449163156004
8.135,-0.7234706841031064
8.1375,-0.6952695694006363
8.14,-0.6779696279247477
8.1425,-0.6615364374092512
8.145,-0.6367098123230925
8.1475,-0.5988151409917837
8.15,-0.549015844092273
8.1525,-0.4930060365034308
8.155,-0.43827508566124296
8.1575,-0.39134459127930077
8.16,-0.3558682440071403
8.1625,-0.3317740638762274
8.165,-0.3152994356827424
8.1675,-0.29991054675494444
8.17,-0.27825992197652183
8.1725,-0.24504731669170346
8.175,-0.19994923119581973
8.1775,-0.14922341517073898
8.18,-0.1047617029168867
8.1825,-0.08036349058371493
8.185,-0.08634340828394321
8.1875,-0.1245250243169004
8.19,-0.18569476994646122
8.1925,-0.25070245877257574
8.195,-0.2950623664390091
8.1975,-0.2957228673680015
8.2,-0.23800817840157484
8.2025,-0.12068175304164058
8.205,0.04239441836887644
8.2075,0.2245043289401612
8.21,0.3914937916225734
8.2125,0.5087752143100652
8.215,0.5483235707644593
8.2175,0.4946263587444653
8.22,0.34890431268663774
8.2225,0.13070696296265655
8.225,-0.12425422266409855
8.2275,-0.37066589743180955
8.23,-0.5637994282231267
8.2325,-0.6708566128101919
8.235,-0.6798887901904026
8.2375,-0.6029395633230538
8.24,-0.4719010091222497
8.2425,-0.32839275823141734
8.245,-0.21142198752799896
8.2475,-0.147337948564754
8.25,-0.14524192416885975
8.2525,-0.19839287131463493
8.255,-0.28979584086704774
8.2575,-0.3991747669869287
8.26,-0.5088896092922325
8.2625,-0.6072914691619072
8.265,-0.6889028214178448
8.2675,-0.7516053841525375
8.27,-0.7918629918763611
8.2725,-0.7997662146940469
8.275,-0.7559293719076484
8.2775,-0.6316933667102556
8.28,-0.3928806581236109
8.2825,-0.006155798349909527
8.285,0.5534894120568182
8.2875,1.2953410755836203
8.29,2.2062842565548277
8.2925,3.2452693055430637
8.295,4.33993128823194
8.2975,5.3874074877892895
8.3,6.261985817899261
8.3025,6.831420183533373
8.305,6.981253910395092
8.3075,6.6428975920588105
8.31,5.81789493540944
8.3125,4.589523570814116
8.315,3.1149642602792467
8.3175,1.5967746198949337
8.32,0.23964115060382504
8.3225,-0.7955621479872589
8.325,-1.4263850694912839
8.3275,-1.6614007831507644
8.33,-1.587594193038944
8.3325,-1.3378647807714716
8.335,-1.0501438243699752
8.3375,-0.8312678480986574
8.34,-0.7356789262846922
8.3425,-0.7629450888924327
8.345,-0.8716176309965491
8.3475,-1.002317162644536
8.35,-1.1013401535764884
8.3525,-1.1374952807007623
8.355,-1.1083094138327572
8.3575,-1.035671610087754
8.36,-0.9541131273282326
8.3625,-0.8965996604706828
8.365,-0.882811723980024
8.3675,-0.9135595925472622
8.37,-0.9726083258635058
8.3725,-1.0344875279024037
8.375,-1.0747989328205456
8.3775,-1.07893699144164
8.38,-1.0461776299406118
8.3825,-0.9881899927972506
8.385,-0.9232319293763678
8.3875,-0.8687418981932367
8.39,-0.8352620478694845
8.3925,-0.8236694183455386
8.395,-0.8261303944711814
8.3975,-0.8298295205377723
8.4,-0.8218573127390235
8.4025,-0.7936347827187195
8.405,-0.7436252790021339
8.4075,-0.6776687082776386
8.41,-0.6069945412872633
8.4125,-0.5446603576191832
8.415,-0.501589601047624
8.4175,-0.4834448514716077
8.42,-0.48931272319731334
8.4225,-0.5126126196136965
8.425,-0.5438176647926823
8.4275,-0.5737914267060241
8.43,-0.5962768377711035
8.4325,-0.6085497704479401
8.435,-0.6102089977753009
8.4375,-0.6010011092949639
8.44,-0.5790473823043985
8.4425,-0.5406634379203649
8.445,-0.4822077426105241
8.4475,-0.40334331842619786
8.45,-0.3101694488971865
8.4525,-0.21634276695913565
8.455,-0.14088517821028304
8.4575,-0.10276604388461646
8.46,-0.1139301896693694
8.4625,-0.1734310955641282
8.465,-0.26523925306923946
8.4675,-0.36116422562250866
8.47,-0.4285814317617899
8.4725,-0.440855026713329
8.475,-0.38702828118412663
8.4775,-0.27702597469564005
8.48,-0.13974415073897042
8.4825,-0.013987060559546016
8.485,0.0647064623878661
8.4875,0.07634112019399579
8.49,0.023157309538020164
8.4925,-0.0715689946051032
8.495,-0.17184378228291464
8.4975,-0.24123916382037655
8.5,-0.254912129442917
8.5025,-0.20732454356304364
8.505,-0.11303422705409276
8.5075,-0.00032994264155974235
8.51,0.09982786600240927
8.5125,0.16524234219272335
8.515,0.18985645223414804
8.5175,0.18439516583718948
8.52,0.17050829195165487
8.5225,0.17141425543944522
8.525,0.20332507202901132
8.5275,0.27105021606291735
8.53,0.36867105314841103
8.5325,0.4835792087180183
8.535,0.6010141668545612
8.5375,0.7070143095391309
8.54,0.7895397405456387
8.5425,0.8389180702429037
8.545,0.8488221102223543
8.5475,0.8180500028324682
8.55,0.752387408907349
8.5525,0.6654050574367777
8.555,0.5772034982686994
8.5575,0.5106590652007665
8.56,0.485599418229263
8.5625,0.5124802644658719
8.565,0.5880312408662082
8.5675,0.6951477463586412
8.57,0.8076909308781068
8.5725,0.8985636429856968
8.575,0.9478442562476928
8.5775,0.9478446901171281
8.58,0.9035505907907887
8.5825,0.8289731002699388
8.585,0.7414213889574046
8.5875,0.6560631597175682
8.59,0.5824704983653307
8.5925,0.5236832743302151
8.595,0.47733737159687434
8.5975,0.4380159714591049
8.6,0.40006934907992586
8.6025,0.36027901701964865
8.605,0.3196967180196111
8.6075,0.2839442746502535
8.61,0.26150965193787273
8.6125,0.26024610004801485
8.615,0.28321627443253344
8.6175,0.32573668271162126
8.62,0.375372447516314
8.6225,0.41548630868446934
8.625,0.4312213051754784
8.6275,0.4154226472419453
8.63,0.37179594438049224
8.6325,0.31373014630211765
8.635,0.25911296099944436
8.6375,0.22320513682467347
8.64,0.21244788971289671
8.6425,0.22163898799725415
8.645,0.23547632678029848
8.6475,0.23377569703322232
8.65,0.19851051626926197
8.6525,0.12046904987355286
8.655,0.003531398172958364
8.6575,-0.13489231939518861
8.66,-0.2677757402407968
8.6625,-0.36587994013948466
8.665,-0.40640813235136036
8.6675,-0.3800273249896085
8.67,-0.29390728985447884
8.6725,-0.16989264986671845
8.675,-0.03860286873425016
8.6775,0.0685063005791171
8.68,0.12665921281891884
8.6825,0.1228704426889742
8.685,0.05774957597773182
8.6875,-0.05582541247680537
8.69,-0.19640559061823631
8.6925,-0.3391091210493343
8.695,-0.46112210149610133
8.6975,-0.5462487928374474
8.7,-0.5872720894128859
8.7025,-0.5856333550825514
8.705,-0.5490674358720027
8.7075,-0.48857284278897894
8.71,-0.4160057047746364
8.7125,-0.34285259713143973
8.715,-0.2798784937277733
8.7175,-0.2368188340295996
8.72,-0.22134356455995455
8.7225,-0.23715828950756807
8.725,-0.28199418582782343
8.7275,-0.3467933420164647
8.73,-0.4171344568154992
8.7325,-0.47690602594959475
8.735,-0.5130154179561078
8.7375,-0.5192460833998211
8.74,-0.4976526126525654
8.7425,-0.4569901882824185
8.745,-0.4089930675302097
8.7475,-0.3641451711680308
8.75,-0.3286305638866607
8.7525,-0.3035481154162583
8.755,-0.2864732949393029
8.7575,-0.2743607018137902
8.76,-0.2661102668766939
8.7625,-0.2633408243784436
8.765,-0.2689792236092566
8.7675,-0.28454648183115266
8.77,-0.3077510561594765
8.7725,-0.3318085812092956
8.775,-0.34698880227572676
8.7775,-0.34382625467516087
8.78,-0.3167331093252833
8.7825,-0.26654537141654255
8.785,-0.20079726513775617
8.7875,-0.13136935351626097
8.79,-0.07044298486908274
8.7925,-0.02661680438681565
8.795,-0.002838460548390786
8.7975,0.0033257051292404933
8.8,-0.0022869019761111065
8.8025,-0.012970024531373527
8.805,-0.023226965937261396
8.8075,-0.029858000511327604
8.81,-0.0320272028352161
8.8125,-0.030620180277222412
8.815,-0.027325074961187783
8.8175,-0.02380887957718314
8.82,-0.021203547274406973
8.8225,-0.019946375575892714
8.825,-0.019894909759337793
8.8275,-0.020580962117827475
8.83,-0.02147432658029633
8.8325,-0.022170585393947655
8.835,-0.022471940359105564
8.8375,-0.022374500348441927
8.84,-0.021999723934390772
8.8425,-0.021511503331433243
8.845,-0.021049888526743717
8.8475,-0.020696096250308882
8.85,-0.020468430553558493
8.8525,-0.02033925219426051
8.855,-0.020260134048195523
8.8575,-0.020184424747178478
8.86,-0.02008113158888224
8.8625,-0.01993892888284322
8.865,-0.0197626012935686
8.8675,-0.01956575429827598
8.87,-0.019363405251122377
8.8725,-0.01916680400818986
8.875,-0.01898129196651874
8.8775,-0.0188067713174544
8.88,-0.018639698163981727
8.8825,-0.01847543020675214
8.885,-0.018310070570850642
8.8875,-0.018141415405050855
8.89,-0.017969033174443972
8.8925,-0.017793763762715492
8.895,-0.017617002289961253
8.8975,-0.017440068105108262
8.9,-0.017263824665811812
8.9025,-0.01708857823619516
8.905,-0.016914186491462473
8.9075,-0.016740267610833515
8.91,-0.01656640858060973
8.9125,-0.016392308159106528
8.915,-0.01621783354378301
8.9175,-0.016043004190827843
8.92,-0.01586793406539687
8.9225,-0.01569276527127945
8.925,-0.015517616822507841
8.9275,-0.01534255904649686
8.93,-0.015167612351965993
8.9325,-0.014992761967884988
8.935,-0.014817978312571168
8.9375,-0.014643234624886824
8.94,-0.014468517356111925
8.9425,-0.014293828695826809
8.945,-0.014119183279114203
8.9475,-0.013944602195893224
8.95,-0.01377010713865876
8.9525,-0.013595716460094715
8.955,-0.01342144367945095
8.9575,-0.013247298020289674
8.96,-0.013073286080321884
8.9625,-0.012899413705655265
8.965,-0.012725687412338373
8.9675,-0.012552115075704482
8.97,-0.012378705936596079
8.9725,-0.012205470168486877
8.975,-0.012032418298282933
8.9775,-0.011859560713656448
8.98,-0.011686907378952364
8.9825,-0.011514467772829386
8.985,-0.011342250987044082
8.9875,-0.011170265897460892
8.99,-0.01099852132792374
8.9925,-0.0108270261584379
8.995,-0.010655789363935112
8.9975,-0.010484819996446489
9.0,-0.010314127136503143
9.0025,-0.010143719839862104
9.005,-0.009973607097709959
9.0075,-0.00980379781776417
9.01,-0.009634300824516115
9.0125,-0.009465124871536081
9.015,-0.009296278657558044
9.0175,-0.009127770839870347
9.02,-0.00895961004171034
9.0225,-0.008791804853418118
9.025,-0.008624363829136467
9.0275,-0.008457295481587811
9.03,-0.008290608277147182
9.0325,-0.008124310632539945
9.035,-0.00795841091351001
9.0375,-0.007792917435067581
9.04,-0.007627838462575952
9.0425,-0.007463182212943702
9.045,-0.007298956855421286
9.0475,-0.0071351705118059645
9.05,-0.006971831256114848
9.0525,-0.006808947113931097
9.055,-0.006646526061657418
9.0575,-0.006484576025856609
9.06,-0.006323104882768414
9.0625,-0.006162120458006071
9.065,-0.006001630526380129
9.0675,-0.005841642811777586
9.07,-0.005682164987034313
9.0725,-0.005523204673764266
9.075,-0.005364769442136746
9.0775,-0.005206866810613231
9.08,-0.0050495042456649274
9.0825,-0.004892689161491613
9.085,-0.004736428919755682
9.0875,-0.004580730829336691
9.09,-0.004425602146104595
9.0925,-0.004271050072705878
9.095,-0.004117081758356012
9.0975,-0.0039637042986332026
9.1,-0.0038109247352709143
9.1025,-0.003658750055949114
9.105,-0.0035071871940856227
9.1075,-0.003356243028629543
9.11,-0.0032059243838583767
9.1125,-0.003056238029179795
9.115,-0.0029071906789382624
9.1175,-0.002758788992226201
9.12,-0.002611039572699171
9.1225,-0.00246394896839456
9.125,-0.002317523671553428
9.1275,-0.0021717701184452796
9.13,-0.002026694689195651
9.1325,-0.0018823037076165134
9.135,-0.0017386034410395857
9.1375,-0.0015956001001527077
9.14,-0.0014532998388394676
9.1425,-0.0013117087540222452
9.145,-0.0011708328855087327
9.1475,-0.0010306782158418485
9.15,-0.0008912506701528498
9.1525,-0.0007525561160173961
9.155,-0.0006146003633143615
9.1575,-0.0004773891640873102
9.16,-0.0003409282124087037
9.1625,-0.00020522314424703392
9.165,-7.02795373371105e-05
9.1675,6.389708894633397e-05
9.17,0.00019730127371168126
9.1725,0.0003299276146702151
9.175,0.00046177076825288104
9.1775,0.0005928254497242858
9.18,0.0007230864332941589
9.1825,0.000852548552226386
9.185,0.0009812066989455944
9.1875,0.0011090558251411892
9.19,0.001236090941868707
9.1925,0.00136230711964839
9.195,0.0014876994885609557
9.1975,0.001612263238340605
9.2,0.0017359936184653682
9.2025,0.001858885938244893
9.205,0.0019809355669057364
9.2075,0.002102137933674182
9.21,0.0022224885278565613
9.2125,0.002341982898917042
9.215,0.0024606166565528313
9.2175,0.002578385470766776
9.22,0.002695285071937387
9.2225,0.002811311250886377
9.225,0.0029264598589438962
9.2275,0.00304072680801165
9.23,0.0031541080706239616
9.2325,0.0032665996800067217
9.235,0.0033781977301340516
9.2375,0.003488898375782474
9.24,0.0035986978325824484
9.2425,0.00370759237706723
9.245,0.003815578346719142
9.2475,0.003922652140013421
9.25,0.004028810216459905
9.2525,0.004134049096642792
9.255,0.0042383653622586415
9.2575,0.004341755656152706
9.26,0.004444216682353575
9.2625,0.0045457452061060276
9.265,0.004646338053901924
9.2675,0.004745992113508968
9.27,0.004844704333997266
9.2725,0.004942471725763622
9.275,0.0050392913605537
9.2775,0.005135160371482154
9.28,0.0052300759530509
9.2825,0.005324035361165611
9.285,0.0054170359131504725
9.2875,0.005509074987761236
9.29,0.005600150025196522
9.2925,0.0056902585271073215
9.295,0.0057793980566046435
9.2975,0.005867566238265248
9.3,0.005954760758135488
9.3025,0.006040979363733283
9.305,0.006126219864048274
9.3075,0.006210480129540255
9.31,0.006293758092136055
9.3125,0.0063760517452249805
9.315,0.006457359143652912
9.3175,0.006537678403715057
9.32,0.006617007703147343
9.3225,0.0066953452811163655
9.325,0.006772689438207874
9.3275,0.0068490385364137815
9.33,0.006924390999117603
9.3325,0.006998745311078286
9.335,0.007072100018412381
9.3375,0.0071444537285745985
9.34,0.007215805110336801
9.3425,0.007286152893765652
9.345,0.007355495870198959
9.3475,0.007423832892220831
9.35,0.007491162873635693
9.3525,0.00755748478944122
9.355,0.007622797675800235
9.3575,0.0076871006300114845
9.36,0.007750392810479171
9.3625,0.007812673436681145
9.365,0.007873941789135676
9.3675,0.007934197209366884
9.37,0.007993439099868861
9.3725,0.008051666924068637
9.375,0.008108880206288091
9.3775,0.008165078531704924
9.38,0.008220261546312623
9.3825,0.008274428956879543
9.385,0.008327580530907023
9.3875,0.008379716096586571
9.39,0.008430835542756055
9.3925,0.008480938818854918
9.395,0.008530025934878328
9.3975,0.008578096961330344
9.4,0.008625152029176101
9.4025,0.008671191329792967
9.405,0.008716215114920744
9.4075,0.008760223696611044
9.41,0.008803217447175929
9.4125,0.008845196799135858
9.415,0.008886162245166975
9.4175,0.00892611433804765
9.42,0.008965053690604208
9.4225,0.00900298097565577
9.425,0.00903989692595821
9.4275,0.009075802334147346
9.43,0.009110698052681528
9.4325,0.009144584993783594
9.435,0.009177464129382232
9.4375,0.009209336491052787
9.44,0.009240203169957457
9.4425,0.009270065316784832
9.445,0.009298924141688791
9.4475,0.009326780914226672
9.45,0.009353636963296757
9.4525,0.00937949367707519
9.455,0.009404352502952374
9.4575,0.009428214947468939
9.46,0.009451082576251291
9.4625,0.009472957013946664
9.465,0.009493839944157673
9.4675,0.009513733109376386
9.47,0.009532638310917968
9.4725,0.009550557408853822
9.475,0.009567492321944319
9.4775,0.009583445027570971
9.48,0.009598417561668193
9.4825,0.009612412018654707
9.485,0.009625430551364682
9.4875,0.009637475370978522
9.49,0.009648548746953405
9.4925,0.009658653006953514
9.495,0.00966779053677994
9.4975,0.009675963780300292
9.5,0.009683175239377985
9.5025,0.009689427473801283
9.505,0.009694723101212055
9.5075,0.00969906479703429
9.51,0.009702455294402416
9.5125,0.009704897384089386
9.515,0.009706393914434558
9.5175,0.00970694779127138
9.52,0.009706561977854924
9.5225,0.009705239494789294
9.525,0.009702983419954908
9.5275,0.009699796888435721
9.53,0.009695683092446237
9.5325,0.00969064528125841
9.535,0.009684686761128311
9.5375,0.009677810895222698
9.54,0.009670021103545458
9.5425,0.009661320862863962
9.545,0.009651713706635315
9.5475,0.009641203224932518
9.55,0.009629793064370661
9.5525,0.009617486928033176
9.555,0.009604288575398148
9.5575,0.00959020182226465
9.56,0.009575230540679104
9.5625,0.009559378658861611
9.565,0.009542650161132265
9.5675,0.009525049087837497
9.57,0.009506579535276418
9.5725,0.009487245655627202
9.575,0.00946705165687345
9.5775,0.009446001802730619
9.58,0.009424100412572495
9.5825,0.009401351861357835
9.585,0.009377760579557139
9.5875,0.009353331053079617
9.59,0.00932806782320029
9.5925,0.009301975486487282
9.595,0.009275058694729135
9.5975,0.009247322154862252
9.6,0.009218770628898466
9.6025,0.009189408933852715
9.605,0.009159241941670873
9.6075,0.00912827457915773
9.61,0.009096511827905135
9.6125,0.009063958724220327
9.615,0.009030620359054395
9.6175,0.008996501877930921
9.62,0.008961608480874853
9.6225,0.008925945422341717
9.625,0.008889518011147192
9.6275,0.008852331610396924
9.63,0.00881439163741659
9.6325,0.008775703563682185
9.635,0.008736272914750506
9.6375,0.008696105270189797
9.64,0.008655206263510587
9.6425,0.008613581582096843
9.645,0.008571236967137418
9.6475,0.008528178213557835
9.65,0.008484411169952338
9.6525,0.008439941738516204
9.655,0.008394775874978354
9.6575,0.008348919588534197
9.66,0.00830237894177889
9.6625,0.008255160050641036
9.665,0.008207269084316751
9.6675,0.008158712265204135
9.67,0.008109495868838043
9.6725,0.00805962622382513
9.675,0.008009109711779044
9.6775,0.007957952767255805
9.68,0.007906161877689449
9.6825,0.007853743583327999
9.685,0.007800704477169849
9.6875,0.007747051204900607
9.69,0.0076927904648304655
9.6925,0.0076379290078320335
9.695,0.00758247363727853
9.6975,0.007526431208982256
9.7,0.007469808631133363
9.7025,0.007412612864238924
9.705,0.007354850921062382
9.7075,0.007296529866563384
9.71,0.007237656817838018
9.7125,0.007178238944059521
9.715,0.007118283466419401
9.7175,0.007057797658069055
9.72,0.0069967888440617965
9.7225,0.006935264401295291
9.725,0.006873231758454361
9.7275,0.006810698395954149
9.73,0.006747671845883641
9.7325,0.006684159691949586
9.735,0.006620169569420801
9.7375,0.006555709165072912
9.74,0.006490786217133548
9.7425,0.00642540851522798
9.745,0.0063595839003252295
9.7475,0.006293320264684576
9.75,0.006226625551802463
9.7525,0.0061595077563598045
9.755,0.006091974924169698
9.7575,0.006024035152125571
9.76,0.005955696588149756
9.7625,0.005886967431142459
9.765,0.005817855930931207
9.7675,0.005748370388220705
9.77,0.005678519154543169
9.7725,0.005608310632209094
9.775,0.005537753274258406
9.7775,0.005466855584411995
9.78,0.005395626117023595
9.7825,0.005324073477032083
9.785,0.005252206319914196
9.7875,0.0051800333516377525
9.79,0.005107563328615396
9.7925,0.005034805057658897
9.795,0.0049617673959340145
9.7975,0.004888459250915873
9.8,0.004814889580344769
9.8025,0.004741067392182368
9.805,0.00466700174456825
9.8075,0.004592701745776797
9.81,0.0045181765541744134
9.8125,0.004443435378177145
9.815,0.004368487476208722
9.8175,0.004293342156659036
9.82,0.004218008777843043
9.8225,0.00414249674796011
9.825,0.004066815525053824
9.8275,0.0039909746169722714
9.83,0.0039149835813288006
9.8325,0.0038388520254632615
9.835,0.003762589606403747
9.8375,0.0036862060308287614
9.84,0.0036097110550297896
9.8425,0.003533114484874186
9.845,0.00345642617576842
9.8475,0.0033796560326216953
9.85,0.003302814009809973
9.8525,0.003225910111140433
9.855,0.003148954389816372
9.8575,0.0030719569484025508
9.86,0.0029949279387909804
9.8625,0.002917877562167144
9.865,0.002840816068976604
9.8675,0.0027637537588920133
9.87,0.0026867009807805095
9.8725,0.0026096681326714948
9.875,0.002532665661724798
9.8775,0.0024557040641992193
9.88,0.002378793885421492
9.8825,0.0023019457197556705
9.885,0.002225170210572947
9.8875,0.002148478050221884
9.89,0.002071879979999051
9.8925,0.0019953867901200276
9.895,0.0019190093196907816
9.8975,0.0018427584566794084
9.9,0.0017666451378882237
9.9025,0.001690680348926215
9.905,0.0016148751241818581
9.9075,0.0015392405467963173
9.91,0.001463787748637039
9.9125,0.001388527910271731
9.915,0.0013134722609427216
9.9175,0.0012386320785416972
9.92,0.0011640186895847842
9.9225,0.0010896434691879558
9.925,0.0010155178410427466
9.9275,0.0009416532773922816
9.93,0.0008680612990076391
9.9325,0.0007947534751645769
9.935,0.0007217414236206416
9.9375,0.0006490368105926648
9.94,0.000576651350734633
9.9425,0.0005045968071159025
9.945,0.0004328849911997303
9.9475,0.0003615277628221055
9.95,0.0002905370301708793
9.9525,0.0002199247497652147
9.955,0.00014970292643537764
9.9575,7.988361330289018e-05
9.96,1.047891176104971e-05
9.9625,-5.8499028544205726e-05
9.965,-0.00012703800973312416
9.9675,-0.00019512578571070387
9.97,-0.00026275006218502695
9.9725,-0.00032989849668537183
9.975,-0.00039655869858008417
9.9775,-0.0004627182290941682
9.98,-0.0005283646013265568
9.9825,-0.0005934852802670356
9.985,-0.000658067682812814
9.9875,-0.0007220991777847712
9.99,-0.0007855670859434125
9.9925,-0.0008484586800045675
9.995,-0.00091076118465484
9.9975,-0.0009724617765668117
10.0,-0.0010335475844139967
10.0025,-0.0010940056888855453
10.005,-0.0011538231227006986
10.0075,-0.0012129868706230074
10.01,-0.0012714838694743338
10.0125,-0.0013293010081486295
10.015,-0.0013864251276254813
10.0175,-0.0014428430209833946
10.02,-0.0014985414334127837
10.0225,-0.0015535070622286276
10.025,-0.001607726556882783
10.0275,-0.001661186518975959
10.03,-0.0017138735022694078
10.0325,-0.0017657740126964297
10.035,-0.0018168745083738205
10.0375,-0.0018671613996133426
10.04,-0.001916621048933226
10.0425,-0.001965239771069579
10.045,-0.002013003832987474
10.0475,-0.002059899453891434
10.05,-0.0021059128052350563
10.0525,-0.0021510300107296892
10.055,-0.002195237146352386
10.0575,-0.0022385202403537425
10.06,-0.0022808652732665105
10.0625,-0.002322258177915936
10.065,-0.002362684839432401
10.0675,-0.0024021310952660304
10.07,-0.002440582735201699
10.0725,-0.0024780255013716846
10.075,-0.002514445088262688
10.0775,-0.002549827142714797
10.08,-0.002584157263912401
10.0825,-0.0026174210033709285
10.085,-0.002649603864927407
10.0875,-0.002680691304745445
10.09,-0.0027106687313440685
10.0925,-0.002739521505653497
10.095,-0.002767234941089463
10.0975,-0.002793794303623844
10.1,-0.002819184811818526
10.1025,-0.0028433916367886086
10.105,-0.0028663999020762877
10.1075,-0.002888194683449606
10.11,-0.0029087610086847696
10.1125,-0.0029280838574316926
10.115,-0.002946148161278003
10.1175,-0.0029629388040950007
10.12,-0.0029784406226588786
10.1225,-0.0029926384074027315
10.125,-0.0030055169030098563
10.1275,-0.0030170608084730266
10.13,-0.0030272547762928044
10.1325,-0.00303608341072271
10.135,-0.0030435312653808054
10.1375,-0.0030495828410353194
10.14,-0.0030542225847419793
10.1425,-0.0030574348915161295
10.145,-0.003059204109155652
10.1475,-0.003059514545644654
10.15,-0.003058350476991342
10.1525,-0.0030556961519335435
10.155,-0.0030515357894609256
10.1575,-0.0030458535663165603
10.16,-0.003038633594917797
10.1625,-0.003029859897045038
10.165,-0.0030195163837175264
10.1675,-0.0030075868545320437
10.17,-0.0029940550277471295
10.1725,-0.0029789046037908187
10.175,-0.0029621193501174225
10.1775,-0.0029436831781537586
10.18,-0.00292358017044823
10.1825,-0.0029017945167767473
10.185,-0.0028783103390268047
10.1875,-0.002853111427427708
10.19,-0.002826180966532073
10.1925,-0.002797501378487805
10.195,-0.0027670544258929083
10.1975,-0.002734821670361207
10.2,-0.0027007852640029387
10.2025,-0.0026649288762267452
10.205,-0.002627238381175934
10.2075,-0.002587701836584304
10.21,-0.002546308365353612
10.2125,-0.0025030458661084703
10.215,-0.002457898007158025
10.2175,-0.0024108415627930317
10.22,-0.002361845580563929
10.2225,-0.002310873815650609
10.225,-0.0022578910876626824
10.2275,-0.0022028726759912663
10.23,-0.0021458138939311456
10.2325,-0.0020867352845871734
10.235,-0.0020256784456763707
10.2375,-0.001962689237991008
