time_s,ecg_processed
0.0,0.004164469593081779
0.0025,0.004212042991709971
0.005,0.004259635580443991
0.0075,0.004307244521472645
0.01,0.0043548669589974776
0.0125,0.004402500019300933
0.015,0.004450140810815955
0.0175,0.004497786424197091
0.02,0.004545433932393108
0.0225,0.0045930803907211284
0.025,0.004640722836942292
0.0275,0.004688358291338915
0.03,0.00473598375679314
0.0325,0.00478359621886707
0.035,0.004831192645884415
0.0375,0.004878769989013673
0.04,0.004926325182352829
0.0425,0.004973855143015595
0.045,0.005021356771219174
0.0475,0.00506882695037354
0.05,0.005116262547172241
0.0525,0.005163660411684726
0.055,0.005211017377450185
0.0575,0.00525833026157296
0.06,0.005305595864819515
0.0625,0.0053528109717169625
0.065,0.0053999723506531335
0.0675,0.005447076753978226
0.07,0.005494120918108002
0.0725,0.005541101563628565
0.075,0.005588015395402684
0.0775,0.005634859102677717
0.08,0.005681629359195109
0.0825,0.005728322823301432
0.085,0.005774936138060957
0.0875,0.005821465931369768
0.09,0.005867908816071424
0.0925,0.0059142613900742035
0.095,0.005960520236469958
0.0975,0.00600668192365463
0.1,0.006052743005450387
0.1025,0.006098700021229336
0.105,0.006144549496038783
0.1075,0.006190287940727985
0.11,0.00623591185207646
0.1125,0.006281417712923865
0.115,0.006326801992301493
0.1175,0.006372061145565373
0.12,0.006417191614531004
0.1225,0.006462189827609698
0.125,0.006507052199946522
0.1275,0.0065517751335598135
0.13,0.006596355017482284
0.1325,0.006640788227903681
0.135,0.006685071128315067
0.1375,0.006729200069654658
0.14,0.006773171390455257
0.1425,0.006816981416993254
0.145,0.00686062646343924
0.1475,0.006904102832010215
0.15,0.006947406813123394
0.1525,0.006990534685551608
0.155,0.007033482716580274
0.1575,0.007076247162165902
0.16,0.0071188242670961535
0.1625,0.007161210265151435
0.165,0.007203401379268074
0.1675,0.007245393821703092
0.17,0.0072871837942006055
0.1725,0.007328767488159868
0.175,0.0073701410848049246
0.1775,0.0074113007553558655
0.18,0.007452242661201648
0.1825,0.007492962954074459
0.185,0.0075334577762256535
0.1875,0.0075737232606032405
0.19,0.007613755531030904
0.1925,0.0076535507023885235
0.195,0.007693104880794237
0.1975,0.007732414163788052
0.2,0.007771474640517031
0.2025,0.007810282391922063
0.205,0.007848833490926209
0.2075,0.00788712400262461
0.21,0.007925149984475964
0.2125,0.00796290748649552
0.215,0.008000392551449544
0.2175,0.008037601215051303
0.22,0.008074529506158586
0.2225,0.00811117344697272
0.225,0.008147529053239138
0.2275,0.00818359233444944
0.23,0.008219359294045023
0.2325,0.008254825929622199
0.235,0.008289988233138852
0.2375,0.008324842191122611
0.24,0.008359383784880514
0.2425,0.008393608990710118
0.245,0.008427513780112092
0.2475,0.008461094120004242
0.25,0.008494345972937028
0.2525,0.00852726529731053
0.255,0.008559848047592859
0.2575,0.008592090174540016
0.26,0.00862398762541719
0.2625,0.008655536344221497
0.265,0.008686732271906148
0.2675,0.008717571346606072
0.27,0.00874804950386501
0.2725,0.008778162676864073
0.275,0.008807906796651747
0.2775,0.008837277792375309
0.28,0.008866271591513621
0.2825,0.008894884120111293
0.285,0.008923111303014136
0.2875,0.008950949064105942
0.29,0.00897839332654661
0.2925,0.009005440013011614
0.295,0.009032085045932921
0.2975,0.009058324347741292
0.3,0.009084153841110016
0.3025,0.009109569449199986
0.305,0.009134567095906121
0.3075,0.009159142706105067
0.31,0.009183292205904145
0.3125,0.009207011522891533
0.315,0.009230296586387712
0.3175,0.009253143327698183
0.32,0.00927554768036754
0.3225,0.009297505580434835
0.325,0.009319012966690193
0.3275,0.009340065780932614
0.33,0.009360659968229032
0.3325,0.009380791477174553
0.335,0.00940045626015388
0.3375,0.009419650273603928
0.34,0.009438369478277623
0.3425,0.00945660983950894
0.345,0.009474367327479135
0.3475,0.009491637917484171
0.35,0.009508417590203298
0.3525,0.009524702331968803
0.355,0.009540488135036846
0.3575,0.009555770997859418
0.36,0.009570546925357437
0.3625,0.009584811929194982
0.365,0.009598562028054628
0.3675,0.009611793247913872
0.37,0.009624501622322592
0.3725,0.009636683192681475
0.375,0.009648334008521445
0.3775,0.009659450127784068
0.38,0.009670027617102983
0.3825,0.009680062552086352
0.385,0.009689551017600339
0.3875,0.009698489108053586
0.39,0.009706872927682665
0.3925,0.009714698590838478
0.395,0.009721962222273587
0.3975,0.009728659957430523
0.4,0.009734787942730966
0.4025,0.009740342335865805
0.405,0.009745319306086048
0.4075,0.009749715034494618
0.41,0.009753525714339075
0.4125,0.009756747551305206
0.415,0.009759376763811434
0.4175,0.009761409583303973
0.42,0.009762842254552732
0.4225,0.009763671035948001
0.425,0.00976389219979796
0.4275,0.009763502032626995
0.43,0.00976249683547482
0.4325,0.00976087292419627
0.435,0.00975862662976178
0.4375,0.009755754298558478
0.44,0.0097522522926919
0.4425,0.009748116990288361
0.445,0.009743344785797954
0.4475,0.009737932090298208
0.45,0.009731875331798378
0.4525,0.009725170955544354
0.455,0.009717815424324138
0.4575,0.009709805218773869
0.46,0.009701136837684447
0.4625,0.009691806798308725
0.465,0.009681811636669188
0.4675,0.009671147907866075
0.47,0.009659812186385983
0.4725,0.00964780106641095
0.475,0.009635111162128028
0.4775,0.00962173910803926
0.48,0.009607681559272024
0.4825,0.009592935191889711
0.485,0.009577496703202803
0.4875,0.009561362812080322
0.49,0.009544530259261675
0.4925,0.009526995807668822
0.495,0.00950875624271873
0.4975,0.009489808372636067
0.5,0.00947014902876606
0.5025,0.009449775065887558
0.505,0.009428683362526254
0.5075,0.009406870821268174
0.51,0.009384334369073401
0.5125,0.009361070957589994
0.515,0.009337077563468044
0.5175,0.009312351188673833
0.52,0.009286888860804088
0.5225,0.009260687633400311
0.525,0.009233744586263134
0.5275,0.009206056825766713
0.53,0.009177621485173157
0.5325,0.009148435724947002
0.535,0.009118496733069656
0.5375,0.009087801725353752
0.54,0.009056347945757416
0.5425,0.00902413266669841
0.545,0.008991153189368226
0.5475,0.008957406844046063
0.55,0.008922890990412683
0.5525,0.008887603017864086
0.555,0.008851540345824953
0.5575,0.008814700424061869
0.56,0.00877708073299628
0.5625,0.008738678784017195
0.565,0.008699492119793583
0.5675,0.008659518314586428
0.57,0.00861875497456044
0.5725,0.008577199738095448
0.575,0.008534850276097475
0.5775,0.008491704292309428
0.58,0.008447759523621354
0.5825,0.008403013740380234
0.585,0.008357464746699282
0.5875,0.008311110380766778
0.59,0.008263948515154364
0.5925,0.008215977057124863
0.595,0.008167193948939496
0.5975,0.008117597168164471
0.6,0.008067184727976885
0.6025,0.008015954677469971
0.605,0.00796390510195768
0.6075,0.007911034123278603
0.61,0.00785733990009922
0.6125,0.007802820628216497
0.615,0.007747474540859775
0.6175,0.00769129990899183
0.62,0.0076342950416090575
0.6225,0.0075764582860407765
0.625,0.007517788028247636
0.6275,0.007458282693119147
0.63,0.007397940744770316
0.6325,0.007336760686837378
0.635,0.0072747410627725575
0.6375,0.007211880456137828
0.64,0.007148177490897642
0.6425,0.007083630831710618
0.645,0.0070182391842201226
0.6475,0.006952001295343765
0.65,0.006884915953561804
0.6525,0.006816981989204423
0.655,0.0067481982747378405
0.6575,0.0066785637250492465
0.66,0.006608077297730539
0.6625,0.00653673799336081
0.665,0.0064645448557875745
0.6675,0.006391496972406674
0.67,0.006317593474440787
0.6725,0.0062428335372165565
0.675,0.006167216380440306
0.6775,0.006090741268472302
0.68,0.006013407510599557
0.6825,0.0059352144613071854
0.685,0.005856161520548297
0.6875,0.005776248134012416
0.69,0.005695473793392401
0.6925,0.005613838036649781
0.695,0.005531340448278501
0.6975,0.005447980659567
0.7,0.005363758348858582
0.7025,0.005278673241810102
0.705,0.005192725111648888
0.7075,0.005105913779427893
0.71,0.005018239114279072
0.7125,0.004929701033665001
0.715,0.004840299503628686
0.7175,0.004750034539041521
0.72,0.004658906203849378
0.7225,0.0045669146113167785
0.725,0.004474059924269098
0.7275,0.00438034235533276
0.73,0.004285762167173418
0.7325,0.004190319672732073
0.735,0.004094015235459178
0.7375,0.003996849269546623
0.74,0.003898822240157646
0.7425,0.0037999346636545858
0.745,0.00370018710782447
0.7475,0.0035995801921023963
0.75,0.0034981145877926744
0.7525,0.003395791018287694
0.755,0.0032926102592844967
0.7575,0.0031885731389990303
0.76,0.0030836805383780714
0.7625,0.0029779333913087865
0.765,0.00287133268482588
0.7675,0.0027638794593162967
0.77,0.0026555748087214444
0.7725,0.002546419880736897
0.775,0.002436415877009554
0.7775,0.002325564053332247
0.78,0.0022138657198357736
0.7825,0.0021013222411783205
0.785,0.001987935036732252
0.7875,0.00187370558076823
0.79,0.0017586354026366236
0.7925,0.0016427260869461815
0.795,0.0015259792737399387
0.7975,0.001408396658668328
0.8,0.0012899799931594808
0.8025,0.0011707310845866805
0.805,0.0010506517964329351
0.8075,0.000929744048452636
0.81,0.0008080098168302668
0.8125,0.0006854511343361398
0.815,0.0005620700904791353
0.8175,0.0004378688316564129
0.82,0.00031284956130006776
0.8225,0.0001870145400207005
0.825,6.0366085747873006e-05
0.8275,-6.709342613257945e-05
0.83,-0.0001953615626444146
0.8325,-0.00032443583309005943
0.835,-0.0004543136889229259
0.8375,-0.0005849925236229951
0.84,-0.0007164696725756971
0.8425,-0.0008487424129541163
0.845,-0.0009818079636045507
0.8475,-0.0011156634849354536
0.85,-0.001250306078809791
0.8525,-0.0013857327884408417
0.855,-0.0015219405982914605
0.8575,-0.0016589264339768306
0.86,-0.0017966871621707303
0.8625,-0.0019352195905153495
0.865,-0.0020745204675347035
0.8675,-0.00221458648255168
0.87,-0.002355414265608753
0.8725,-0.002497000387392385
0.875,-0.0026393413591611413
0.8775,-0.002782433632677517
0.88,-0.002926273600143514
0.8825,-0.0030708575941399865
0.885,-0.0032161818875698187
0.8875,-0.0033622426936049305
0.89,-0.003509036165637158
0.8925,-0.0036565583972330102
0.895,-0.003804805422092351
0.8975,-0.003953773214011065
0.9,-0.0041034576868477475
0.9025,-0.0042538546944944555
0.905,-0.004404960030851511
0.9075,-0.004556769429806374
0.91,-0.004709278565216595
0.9125,-0.004862483050896859
0.915,-0.005016378440610172
0.9175,-0.005170960228063212
0.92,-0.0053262238469058915
0.9225,-0.005482164670735195
0.925,-0.005638778013103309
0.9275,-0.005796059127530082
0.93,-0.005954003207519819
0.9325,-0.006112605386582447
0.935,-0.006271860738259012
0.9375,-0.006431764276151549
0.94,-0.006592310953957343
0.9425,-0.006753495665507628
0.945,-0.0069153132448107795
0.9475,-0.007077758466100067
0.95,-0.007240826043886002
0.9525,-0.00740451063301332
0.955,-0.007568806828722592
0.9575,-0.007733709166716434
0.96,-0.007899212123230333
0.9625,-0.008065310115108063
0.965,-0.008231997499881691
0.9675,-0.008399268575856255
0.97,-0.00856711758219911
0.9725,-0.008735538699034087
0.975,-0.008904526047540495
0.9775,-0.009074073690057057
0.98,-0.009244175630190745
0.9825,-0.009414825812930521
0.985,-0.009586018124765935
0.9875,-0.009757746393810609
0.99,-0.00993000438993066
0.9925,-0.010102785824878092
0.995,-0.010276084352429118
0.9975,-0.010449893568527465
1.0,-0.010624207011432713
1.0025,-0.01079901816187374
1.005,-0.01097432044320726
1.0075,-0.011150107221581494
1.01,-0.011326371806104973
1.0125,-0.011503107449020484
1.015,-0.01168030734588423
1.0175,-0.011857964635750257
1.02,-0.012036072401360119
1.0225,-0.012214623669337722
1.025,-0.012393611410389376
1.0275,-0.012573028539509099
1.03,-0.01275286791618917
1.0325,-0.012933122344636014
1.035,-0.013113784573991458
1.0375,-0.013294847298559433
1.04,-0.0134763031580381
1.0425,-0.013658144737757416
1.045,-0.013840364568922124
1.0475,-0.014022955128860174
1.05,-0.014205908841276534
1.0525,-0.014389218076512429
1.055,-0.014572875151810097
1.0575,-0.014756872331583069
1.06,-0.014941201827691979
1.0625,-0.01512585579972602
1.065,-0.015310826355290097
1.0675,-0.01549610555029758
1.07,-0.01568168538926865
1.0725,-0.01586755782563414
1.075,-0.016053714762044955
1.0775,-0.016240148050687055
1.08,-0.016426849493602107
1.0825,-0.01661381084301382
1.085,-0.016801023801660132
1.0875,-0.016988480023131206
1.09,-0.017176171112213243
1.0925,-0.017364088625238052
1.095,-0.01755222407043841
1.0975,-0.017740568908309128
1.1,-0.01792911455197398
1.1025,-0.018117852367558446
1.105,-0.01830677367456838
1.1075,-0.01849586974627453
1.11,-0.018685131810102895
1.1125,-0.018874551048030982
1.115,-0.01906411859698994
1.1175,-0.01925382554927255
1.12,-0.019443662952947038
1.1225,-0.019633621812276684
1.125,-0.019823693088145165
1.1275,-0.02001386769848778
1.13,-0.02020413651872885
1.1325,-0.020394490382225516
1.135,-0.020584920080718067
1.1375,-0.020775416364786768
1.14,-0.020965969944314995
1.1425,-0.02115657148895827
1.145,-0.02134721162861849
1.1475,-0.021537880953922436
1.15,-0.02172857001670417
1.1525,-0.021919269330491712
1.155,-0.022109969370999558
1.1575,-0.022300660576629223
1.16,-0.022491333348980482
1.1625,-0.02268197805337512
1.165,-0.02287258501939306
1.1675,-0.02306314454141751
1.17,-0.023253646879182275
1.1725,-0.023444082258312942
1.175,-0.023634440870854652
1.1775,-0.02382471287578501
1.18,-0.024014888399519527
1.1825,-0.024204957536427926
1.185,-0.02439491034938726
1.1875,-0.024584736870397944
1.19,-0.02477442710127556
1.1925,-0.024963971014404777
1.195,-0.025153358553506745
1.1975,-0.025342579634340463
1.2,-0.02553162414524883
1.2025,-0.025720481947488463
1.205,-0.025909142875356155
1.2075,-0.02609759673623407
1.21,-0.026285833310787047
1.2125,-0.026473842353605757
1.215,-0.0266616135945411
1.2175,-0.026849136740780138
1.22,-0.027036401479384065
1.2225,-0.027223397479629718
1.225,-0.027410114394224052
1.2275,-0.027596541858488276
1.23,-0.027782669487090423
1.2325,-0.02796848686886338
1.235,-0.028153983561482247
1.2375,-0.028339149088844932
1.24,-0.028523972944289235
1.2425,-0.028708444601707364
1.245,-0.02889255353394041
1.2475,-0.029076289233948806
1.25,-0.02925964123037121
1.2525,-0.029442599087094443
1.255,-0.02962515237839553
1.2575,-0.02980729063835159
1.26,-0.029989003295000878
1.2625,-0.030170279613062533
1.265,-0.030351108678267447
1.2675,-0.030531479454722853
1.27,-0.030711380928898607
1.2725,-0.030890802319336788
1.275,-0.03106973328744712
1.2775,-0.031248164047829857
1.28,-0.03142608526826461
1.2825,-0.031603487689972565
1.285,-0.031780361495774505
1.2875,-0.03195669559197086
1.29,-0.03213247710512009
1.2925,-0.03230769145993291
1.295,-0.03248232332800158
1.2975,-0.03265635847656355
1.3,-0.03282978612508077
1.3025,-0.033002600949519616
1.305,-0.033174803561299565
1.3075,-0.0333463983694407
1.31,-0.03351738839292176
1.3125,-0.03368776783016537
1.315,-0.03385751473807283
1.3175,-0.03402658744433391
1.32,-0.034194928540957036
1.3225,-0.0343624787854322
1.325,-0.03452919972587576
1.3275,-0.03469509895584832
1.33,-0.03486024719364891
1.3325,-0.03502477427408391
1.335,-0.035188834129235604
1.3375,-0.03535253833377564
1.34,-0.0355158728445652
1.3425,-0.03567862897785707
1.345,-0.0358403902206745
1.3475,-0.03600061273196766
1.35,-0.036158813125149084
1.3525,-0.03631483258485132
1.355,-0.036469091808869
1.3575,-0.03662270758154427
1.36,-0.03677733635443151
1.3625,-0.0369346672159624
1.365,-0.03709561349748492
1.3675,-0.0372594266055552
1.37,-0.037423119406364204
1.3725,-0.037581653989124775
1.375,-0.037729232875231125
1.3775,-0.03786168684666615
1.38,-0.037979415234173766
1.3825,-0.0380897593482283
1.385,-0.038207335265187554
1.3875,-0.03835101510113692
1.39,-0.03853713826581763
1.3925,-0.0387701325400869
1.395,-0.039033648995442045
1.3975,-0.039286811936675985
1.4,-0.039470286044582074
1.4025,-0.039524731868703346
1.405,-0.03941963685548839
1.4075,-0.039184319994579206
1.41,-0.038927220074219865
1.4125,-0.03882743984171863
1.415,-0.03908697364452149
1.4175,-0.039844651140741795
1.42,-0.04107207118215953
1.4225,-0.04249212008781141
1.425,-0.043572921010486175
1.4275,-0.04364398654143316
1.43,-0.04214999961828675
1.4325,-0.03900270967136921
1.435,-0.034927281839996056
1.4375,-0.031653199029493505
1.44,-0.0318048412107218
1.4425,-0.0384286644701004
1.445,-0.054250211724894505
1.4475,-0.08093403112832276
1.45,-0.1187084722186782
1.4525,-0.16656453270627702
1.455,-0.22281381724718297
1.4575,-0.2854045433008957
1.46,-0.35155046357599484
1.4625,-0.4169864633531776
1.465,-0.47581729821574015
1.4675,-0.5216699341645422
1.47,-0.5497868193406978
1.4725,-0.5588176956249669
1.475,-0.5512248844059109
1.4775,-0.5321812973152078
1.48,-0.5076909771624561
1.4825,-0.4828350212789795
1.485,-0.46070186969446797
1.4875,-0.4421337536411403
1.49,-0.42614844988787437
1.4925,-0.41076670987454156
1.495,-0.39392797144203545
1.4975,-0.3742154779927128
1.5,-0.3512492033720072
1.5025,-0.32577854603070033
1.505,-0.2995999548003814
1.5075,-0.27536165990380146
1.51,-0.2561678921394546
1.5125,-0.2448597975303032
1.515,-0.24305317801211423
1.5175,-0.25031392683478554
1.52,-0.26395779036950023
1.5225,-0.2797214515800126
1.525,-0.2931069309369864
1.5275,-0.3008531828519612
1.53,-0.30194424942531617
1.5325,-0.29780351270407146
1.535,-0.2916889724237455
1.5375,-0.2876200784231917
1.54,-0.28929452496528424
1.5425,-0.2993485851508151
1.545,-0.3190659534331891
1.5475,-0.34840790944201905
1.55,-0.38615243734317123
1.5525,-0.43003014143600793
1.555,-0.4769342305861364
1.5575,-0.5233635307215566
1.56,-0.5661112035647986
1.5625,-0.6029562462502804
1.565,-0.6330136266772464
1.5675,-0.6565759377210553
1.57,-0.6745869289551123
1.5725,-0.6880757665951684
1.575,-0.6978329662806069
1.5775,-0.7043961622655719
1.58,-0.7082090009091212
1.5825,-0.7097640921142198
1.585,-0.7096411315892266
1.5875,-0.7084649127008267
1.59,-0.7068146758100405
1.5925,-0.7050454580026836
1.595,-0.7029728150120513
1.5975,-0.6995216204664031
1.6,-0.6926707883834803
1.6025,-0.680102032835388
1.605,-0.6606942497853384
1.6075,-0.6364791860906278
1.61,-0.614217719936816
1.6125,-0.6056812125425669
1.615,-0.6260945799063892
1.6175,-0.6908300151706053
1.62,-0.8110595486464969
1.6225,-0.9894709382013542
1.625,-1.2171998861771127
1.6275,-1.4727911716376496
1.63,-1.7233790147569057
1.6325,-1.9276263855748377
1.635,-2.0395617946373674
1.6375,-2.012508414633082
1.64,-1.802872159836382
1.6425,-1.3743781556137895
1.645,-0.7037992022879505
1.6475,0.2112941938828681
1.65,1.3437622043299198
1.6525,2.6299458902154798
1.655,3.9684148309962515
1.6575,5.227637576708466
1.66,6.263431083504363
1.6625,6.943769549107753
1.665,7.175539505596117
1.6675,6.926224614311624
1.67,6.234032254827534
1.6725,5.202719983640797
1.675,3.981591975346415
1.6775,2.7354428195444576
1.68,1.612179950642276
1.6825,0.7164582117381737
1.685,0.09568352793169137
1.6875,-0.25916487362824225
1.69,-0.39992132876759195
1.6925,-0.40032563117365416
1.695,-0.3346443446433053
1.6975,-0.26159363168768096
1.7,-0.21657192893686059
1.7025,-0.21199741288861806
1.705,-0.24318002385169546
1.7075,-0.2963430165726311
1.71,-0.3559631428853774
1.7125,-0.40978879368795
1.715,-0.4510574717838555
1.7175,-0.4782887811079419
1.72,-0.4935514689338657
1.7225,-0.5002928800522908
1.725,-0.5016620244967352
1.7275,-0.4998102633985448
1.73,-0.4960934845871758
1.7325,-0.49167665010664646
1.735,-0.487946710175106
1.7375,-0.4863849957035092
1.74,-0.48797060889146937
1.7425,-0.4925309097271537
1.745,-0.4985057959157895
1.7475,-0.5033194513190764
1.75,-0.5041750496230754
1.7525,-0.49888498306181905
1.755,-0.4864211398976301
1.7575,-0.4671066104966143
1.76,-0.4425712436356823
1.7625,-0.41559033349575275
1.765,-0.3897338174192857
1.7675,-0.36863242166341964
1.77,-0.35487008134211695
1.7725,-0.3489289267712802
1.775,-0.34881565693500977
1.7775,-0.3507092646780106
1.78,-0.3503877924044756
1.7825,-0.3447734700692591
1.785,-0.3329427984745179
1.7875,-0.3162773675045579
1.79,-0.2978131494922612
1.7925,-0.28109656051048143
1.795,-0.26894559913268323
1.7975,-0.26249296606957556
1.8,-0.26079441520992663
1.8025,-0.2611279256494176
1.805,-0.25989934220645106
1.8075,-0.253856239297259
1.81,-0.24117795269609268
1.8125,-0.22203621566924345
1.815,-0.19842058428151096
1.8175,-0.17331519492350037
1.82,-0.14957200277419738
1.8225,-0.12893980877387395
1.825,-0.11161493491580535
1.8275,-0.09640701253997332
1.83,-0.08131935668009867
1.8325,-0.06422641861517887
1.835,-0.04343510195092573
1.8375,-0.018072940159606355
1.84,0.0117196824148421
1.8425,0.04486821509287937
1.845,0.07976350738208764
1.8475,0.11488307686779188
1.85,0.14938693760236196
1.8525,0.18342572982945665
1.855,0.21802834856291342
1.8575,0.2546346222797094
1.86,0.29450692104049186
1.8625,0.3382961152356286
1.865,0.3859175800524148
1.8675,0.4367077206450465
1.87,0.489732366184789
1.8725,0.544136036840542
1.875,0.5994503458841999
1.8775,0.655767435147059
1.88,0.7137038913266277
1.8825,0.7741731733016822
1.885,0.8380709594829231
1.8875,0.9059864697649176
1.89,0.9780089147199486
1.8925,1.053655897053506
1.895,1.1319316289273151
1.8975,1.2115139441522602
1.9,1.29103100175484
1.9025,1.3693113127794485
1.905,1.4454493974010876
1.9075,1.518620441150035
1.91,1.5877828779082936
1.9125,1.651558925375246
1.915,1.7084980655294066
1.9175,1.7576207734408174
1.92,1.7988638669602894
1.9225,1.8330697757724739
1.925,1.8614724457910554
1.9275,1.8849578514177079
1.93,1.903468771156051
1.9325,1.9157849935086873
1.935,1.919719383406357
1.9375,1.9126516793285668
1.94,1.8922518115669438
1.9425,1.857161474406802
1.945,1.8073458378089022
1.9475,1.7439166645638746
1.95,1.6685018616446208
1.9525,1.5825339489334107
1.955,1.4868943452237187
1.9575,1.3820950061422788
1.96,1.2688060459193329
1.9625,1.1483383213465075
1.965,1.0227781685859234
1.9675,0.8947436563704075
1.97,0.7669810364016252
1.9725,0.6420704922448353
1.975,0.5223440508175825
1.9775,0.4098981839590744
1.98,0.30650168884510287
1.9825,0.21331540478648428
1.985,0.13055645429685278
1.9875,0.057383905671807324
1.99,-0.007775502809368049
1.9925,-0.06649939748618257
1.995,-0.11957631971321865
1.9975,-0.166604365784239
2.0,-0.20626168928117405
2.0025,-0.2371498428869151
2.005,-0.2587809603263643
2.0075,-0.27220699926502995
2.01,-0.27999877437988685
2.0125,-0.2856156390056695
2.015,-0.29245422538994
2.0175,-0.3029346406458845
2.02,-0.3179248894494747
2.0225,-0.33667944727341365
2.025,-0.3572838280226993
2.0275,-0.3773990238812631
2.03,-0.39499882137346704
2.0325,-0.40884736973249713
2.035,-0.4186216296286361
2.0375,-0.42475114351970367
2.04,-0.4281412370168258
2.0425,-0.4299113596059946
2.045,-0.4311625862499409
2.0475,-0.4327265861785832
2.05,-0.4349239386435876
2.0525,-0.43747471190418313
2.055,-0.4396840670285538
2.0575,-0.44084529113128007
2.06,-0.44063494643221346
2.0625,-0.4392851923072395
2.065,-0.43748612635085715
2.0675,-0.4361390440250569
2.07,-0.43611810635910586
2.0725,-0.4381034232589795
2.075,-0.4424468205847159
2.0775,-0.44904146375499243
2.08,-0.4572629958103714
2.0825,-0.4660906262452087
2.085,-0.47442037777521595
2.0875,-0.4814319139963427
2.09,-0.48681470963859674
2.0925,-0.4907499524272215
2.095,-0.49369038182209213
2.0975,-0.4960633568617992
2.1,-0.49802149305258664
2.1025,-0.4993334144776235
2.105,-0.4994705904817386
2.1075,-0.4978843545625776
2.11,-0.49437233317859
2.1125,-0.4893514323685437
2.115,-0.4838653376030029
2.1175,-0.47929115943356276
2.12,-0.47688755926118376
2.1225,-0.47740346630324604
2.125,-0.4808953729713714
2.1275,-0.4867753911397974
2.13,-0.49403642460180514
2.1325,-0.5015718707153661
2.135,-0.5084743887520109
2.1375,-0.5141841405165349
2.14,-0.5184285078791512
2.1425,-0.5210404367231354
2.145,-0.5218480912419325
2.1475,-0.5207804647323738
2.15,-0.5181377954950872
2.1525,-0.5147912129083138
2.155,-0.5120796062392494
2.1575,-0.5113704871258297
2.16,-0.5134869606988328
2.1625,-0.5183150071484618
2.165,-0.52483094745976
2.1675,-0.5315631571525489
2.17,-0.53725018664644
2.1725,-0.5413435121023017
2.175,-0.5441109945380004
2.1775,-0.5463505771957284
2.18,-0.5489402338225174
2.1825,-0.5524873106745144
2.185,-0.5571997506967271
2.1875,-0.5629109507404241
2.19,-0.569105130079709
2.1925,-0.5748775933171922
2.195,-0.5789305056924441
2.1975,-0.5797719210166662
2.2,-0.5761747103046538
2.2025,-0.567756476247444
2.205,-0.5554136618243241
2.2075,-0.5413612592909887
2.21,-0.5286781453158237
2.2125,-0.5204660907322061
2.215,-0.5189056398176526
2.2175,-0.5245545215743319
2.22,-0.5361510375930065
2.2225,-0.5509900775960079
2.225,-0.5657239894735769
2.2275,-0.5773025457344761
2.23,-0.5837529313774531
2.2325,-0.5845901047077887
2.235,-0.5807831298788718
2.2375,-0.5743395827738775
2.24,-0.5676737053933838
2.2425,-0.5629504533111516
2.245,-0.5615468766767016
2.2475,-0.5637236377019067
2.25,-0.568592166228215
2.2525,-0.5744176723515947
2.255,-0.5791658435689341
2.2575,-0.5810828842482383
2.26,-0.5791175882550839
2.2625,-0.5731285414909473
2.265,-0.5639256926884088
2.2675,-0.5531741105184658
2.27,-0.543105739103585
2.2725,-0.5359955351065131
2.275,-0.5335043910182108
2.2775,-0.5361486975819858
2.28,-0.5431631529487311
2.2825,-0.5528328509001091
2.285,-0.5631131911665431
2.2875,-0.5722383074641958
2.29,-0.5791083720613089
2.2925,-0.5834030911034165
2.295,-0.5854413568334821
2.2975,-0.5858204325735288
2.3,-0.5849405207214913
2.3025,-0.5826488924206481
2.305,-0.5782613416181726
2.3075,-0.5710246429511006
2.31,-0.5607882473850796
2.3125,-0.5485008947966706
2.315,-0.5362476475793029
2.3175,-0.5267852405133989
2.32,-0.5227428625398084
2.3225,-0.5257471540514436
2.325,-0.5357286069392921
2.3275,-0.5506279512673143
2.33,-0.5666547651433651
2.3325,-0.5791149318227841
2.335,-0.5836119644875843
2.3375,-0.5772370531687773
2.34,-0.5593331019639873
2.3425,-0.5315906424471668
2.345,-0.49750695548871515
2.3475,-0.4614621144420145
2.35,-0.42774316314117183
2.3525,-0.39977664732259416
2.355,-0.3796736807047976
2.3575,-0.36804592861538915
2.36,-0.3639971216348637
2.3625,-0.36524643752685015
2.365,-0.3684267035254475
2.3675,-0.36962732477303456
2.37,-0.36518179226585074
2.3725,-0.3525773438965493
2.375,-0.3312694755766305
2.3775,-0.3031528493667777
2.38,-0.27245630438444013
2.3825,-0.2449127259924522
2.385,-0.22627550132579316
2.3875,-0.22058668568343578
2.39,-0.2288431553507148
2.3925,-0.248631624233861
2.395,-0.27489407529115084
2.3975,-0.3014790789455153
2.4,-0.32284831187899105
2.4025,-0.33538095375287774
2.405,-0.33801416069315887
2.4075,-0.33222916054134277
2.41,-0.32151806121176035
2.4125,-0.3104922254350843
2.415,-0.3038124660522483
2.4175,-0.3051674260520533
2.42,-0.3165499208328786
2.4225,-0.33800989000676834
2.425,-0.367893622632055
2.4275,-0.40339890175701365
2.43,-0.4411966835374734
2.4325,-0.47794695554207783
2.435,-0.5107041121755512
2.4375,-0.5372965302159864
2.44,-0.5566678637751914
2.4425,-0.5689992653726744
2.445,-0.5754356531314967
2.4475,-0.5774887463030569
2.45,-0.5764619740571566
2.4525,-0.5732528843964332
2.455,-0.5686081088943045
2.4575,-0.5635750439293014
2.46,-0.5597559369513094
2.4625,-0.5590774637412669
2.465,-0.5630542487551592
2.4675,-0.5718194393792213
2.47,-0.5833876145970734
2.4725,-0.5936230727062353
2.475,-0.5972113574292647
2.4775,-0.5896054403758876
2.48,-0.5694901231046777
2.4825,-0.5409265566191102
2.485,-0.5142321734750009
2.4875,-0.5049485963959099
2.49,-0.5308463086634311
2.4925,-0.6075546869626866
2.495,-0.74386529712758
2.4975,-0.9379115350786359
2.5,-1.1752164687604276
2.5025,-1.4290405004200555
2.505,-1.6627409314254231
2.5075,-1.8333187869066605
2.51,-1.895263355869477
2.5125,-1.8042516226871228
2.515,-1.5209805139501407
2.5175,-1.015962366867607
2.52,-0.2759988988899285
2.5225,0.6879770126581795
2.525,1.8335914255996613
2.5275,3.0834069974720903
2.53,4.328169616736669
2.5325,5.438612059865046
2.535,6.284945305724931
2.5375,6.760425816013938
2.54,6.803418598475789
2.5425,6.411980152770875
2.545,5.64650067495358
2.5475,4.619006276740093
2.55,3.4713711664315205
2.5525,2.3477658617381785
2.555,1.3681978363149943
2.5575,0.6095004889786595
2.56,0.09777910436902697
2.5625,-0.18706671425383847
2.565,-0.2974285660076329
2.5675,-0.2995556032405462
2.57,-0.25598706280378836
2.5725,-0.21313141578883768
2.575,-0.19609650396162343
2.5775,-0.21041108412194098
2.58,-0.24832440922486018
2.5825,-0.29651919095716234
2.585,-0.3424888009503943
2.5875,-0.37813838190550575
2.59,-0.4006116965426674
2.5925,-0.4112349254513633
2.595,-0.41364343830955336
2.5975,-0.4119283314594928
2.6,-0.4093286337949346
2.6025,-0.4076875326968512
2.605,-0.4075841770865974
2.6075,-0.4088236583463562
2.61,-0.41092351808886907
2.6125,-0.41337737830198473
2.615,-0.41567983774811207
2.6175,-0.417230800331803
2.62,-0.4172642727562086
2.6225,-0.4148928426970345
2.625,-0.40927133363707635
2.6275,-0.39982631226161125
2.63,-0.38650254603057677
2.6325,-0.36998526016528177
2.635,-0.3518051346979532
2.6375,-0.3341806164351274
2.64,-0.3195272016655812
2.6425,-0.3097657949208195
2.645,-0.30572126302019886
2.6475,-0.3068753277464977
2.65,-0.31156426278956983
2.6525,-0.3175252299200545
2.655,-0.3225765750516153
2.6575,-0.32518501782488685
2.66,-0.3247318148720909
2.6625,-0.3214241218680842
2.665,-0.3159418291897139
2.6675,-0.3089848843958349
2.67,-0.30087439367813557
2.6725,-0.29132754096759433
2.675,-0.27951730946833947
2.6775,-0.264473736777713
2.68,-0.24570399543343519
2.6825,-0.22370053113965202
2.685,-0.19999079803477207
2.6875,-0.17663494900813878
2.69,-0.15541094839665676
2.6925,-0.13708292528444865
2.695,-0.12106505420500278
2.6975,-0.10560925900657496
2.7,-0.08848048052726264
2.7025,-0.06792286954532743
2.705,-0.043550334727409906
2.7075,-0.016726765603247137
2.71,0.009839494936837664
2.7125,0.03320996151601492
2.715,0.05160109022123684
2.7175,0.06542428360479258
2.72,0.07747386378454248
2.7225,0.09212913555094814
2.725,0.11389740615762589
2.7275,0.14591420367710525
2.73,0.18898784241482297
2.7325,0.24149791794640132
2.735,0.30010382194242713
2.7375,0.36091932538427957
2.74,0.42065443774652383
2.7425,0.47730524090999377
2.745,0.5302736754796474
2.7475,0.5801160255137978
2.75,0.6282036190636981
2.7525,0.6764151257906064
2.755,0.7267948167180922
2.7575,0.7811025198704531
2.76,0.8403234535395052
2.7625,0.9043359522971568
2.765,0.9719271713926974
2.7675,1.041201769950699
2.77,1.1102429053977594
2.7725,1.1777562231060639
2.775,1.2434077640667442
2.7775,1.3076829220923465
2.78,1.3713241169355843
2.7825,1.4346333929318835
2.785,1.4970077148451189
2.7875,1.5569581638031562
2.79,1.6126127348533208
2.7925,1.6624346310584406
2.795,1.7057453394866386
2.7975,1.7427372175534208
2.8,1.7739616928791375
2.8025,1.7995870566510195
2.805,1.8188334634186076
2.8075,1.829868653105693
2.81,1.8301916978898303
2.8125,1.817307391892687
2.815,1.7894227349945835
2.8175,1.74596825090741
2.82,1.687840316178945
2.8225,1.6172972607183935
2.825,1.537466225421116
2.8275,1.4515156661205777
2.83,1.3617254640787984
2.8325,1.2688347565189093
2.835,1.1720255263206054
2.8375,1.0696551441337903
2.84,0.9604811759386102
2.8425,0.8448377949718084
2.845,0.7252144244489854
2.8475,0.6059626410018943
2.85,0.4922449700255589
2.8525,0.388650601784209
2.855,0.2980212876540607
2.8575,0.22089407807037845
2.86,0.15564205863772662
2.8625,0.09911616188355589
2.865,0.047542015763139704
2.8675,-0.002493165346357925
2.87,-0.05312693136451631
2.8725,-0.10462824771613416
2.875,-0.15537244368685446
2.8775,-0.20246741423101441
2.88,-0.24286035106366696
2.8825,-0.27453389253713256
2.885,-0.2973136635925098
2.8875,-0.31293312550039565
2.89,-0.3243295938833676
2.8925,-0.33450889212102275
2.895,-0.34547968881380736
2.8975,-0.357653710591867
2.9,-0.36988014003768677
2.9025,-0.38006630729062124
2.905,-0.3861408995662224
2.9075,-0.3869700339254406
2.91,-0.3828526134393812
2.9125,-0.37542912209100615
2.915,-0.3671041952587666
2.9175,-0.3602539965060635
2.92,-0.35652064957047835
2.9225,-0.35642417748235744
2.925,-0.359393529543895
2.9275,-0.3641732508038776
2.93,-0.36943508112437423
2.9325,-0.3743390087887912
2.935,-0.37878947612479696
2.9375,-0.38327153101284595
2.94,-0.3883883503564126
2.9425,-0.39438701701787965
2.945,-0.40092161012976224
2.9475,-0.4071269840009548
2.95,-0.4119294093567194
2.9525,-0.41446432544794365
2.955,-0.41445268169874017
2.9575,-0.4123776645656154
2.96,-0.40935210731890465
2.9625,-0.4067005660833785
2.965,-0.40542766466058594
2.9675,-0.4058035981738164
2.97,-0.40724289545965475
2.9725,-0.40853483184688394
2.975,-0.40835513334098617
2.9775,-0.405874273676611
2.98,-0.4012139373645345
2.9825,-0.3955411659033456
2.985,-0.3907346658407437
2.9875,-0.3887414264325405
2.99,-0.3908742111183981
2.9925,-0.3973229652750428
2.995,-0.4070584269120675
2.9975,-0.41814898889972474
3.0,-0.4283721229659186
3.0025,-0.43591452513841683
3.005,-0.4399168931676211
3.0075,-0.44065225436066396
3.01,-0.4392659134946503
3.0125,-0.43721188952638523
3.015,-0.43567074487552654
3.0175,-0.4352192543861343
3.02,-0.4358505622022041
3.0225,-0.43723057966166684
3.025,-0.43896520540694833
3.0275,-0.4407163958350163
3.03,-0.4421806841050619
3.0325,-0.44306957826704
3.035,-0.443195180188844
3.0375,-0.4426179598382841
3.04,-0.44171122767975984
3.0425,-0.4410366954422024
3.045,-0.4410720306632574
3.0475,-0.44196165737355203
3.05,-0.443464406399684
3.0525,-0.44513532560910507
3.055,-0.4466126596165664
3.0575,-0.4478160128342541
3.06,-0.4489348348945937
3.0625,-0.4502329741042149
3.065,-0.4518191969796578
3.0675,-0.45355377459000146
3.07,-0.4551502468658987
3.0725,-0.456370217133633
3.075,-0.45714472599092204
3.0775,-0.45754538850502163
3.08,-0.4576706025326031
3.0825,-0.4575715770777071
3.085,-0.4572861476395059
3.0875,-0.4569383016347414
3.09,-0.45678916207739556
3.0925,-0.45715454443188713
3.095,-0.4582173834827014
3.0975,-0.45986356286608066
3.1,-0.46167354960702633
3.1025,-0.46310833712902716
3.105,-0.46379577223764484
3.1075,-0.4637362113198444
3.11,-0.46328070039945685
3.1125,-0.46288902073668015
3.115,-0.4628368456806236
3.1175,-0.46307805379911365
3.12,-0.4633491612283385
3.1225,-0.46341983267137704
3.125,-0.46328590750947074
3.1275,-0.46315540414624046
3.13,-0.46325211252951454
3.1325,-0.4636100082631038
3.135,-0.4640328477945626
3.1375,-0.4642525687194268
3.14,-0.46415422218863867
3.1425,-0.4638779224136862
3.145,-0.46370960081961743
3.1475,-0.46384929022207727
3.15,-0.4642477681814644
3.1525,-0.4646461987452105
3.155,-0.4647879198340519
3.1575,-0.4646296703681975
3.16,-0.4643776663469268
3.1625,-0.4643182082555234
3.165,-0.46458252257575133
3.1675,-0.46503797175747863
3.17,-0.4653935497365961
3.1725,-0.4654339332994625
3.175,-0.4651913443232582
3.1775,-0.46491545666149786
3.18,-0.46486981510672915
3.1825,-0.4651259116065408
3.185,-0.465523462298139
3.1875,-0.465824425295854
3.19,-0.4659255968534088
3.1925,-0.46594283452894664
3.195,-0.46608679535160963
3.1975,-0.4664299184454238
3.2,-0.4667642395126692
3.2025,-0.4666848599044126
3.205,-0.4658547049485425
3.2075,-0.4642498166140139
3.21,-0.4621748660235233
3.2125,-0.45999258807893173
3.215,-0.4577182354531257
3.2175,-0.45474473866967235
3.22,-0.44991025191493017
3.2225,-0.441921481975672
3.225,-0.42991486434664694
3.2275,-0.4138256036584626
3.23,-0.39433028817323246
3.2325,-0.3723835432880166
3.235,-0.3486352587559529
3.2375,-0.3231222233288964
3.24,-0.2954687681920952
3.2425,-0.2654811584561896
3.245,-0.23374645323134574
3.2475,-0.2018667352032208
3.25,-0.17222043419458874
3.2525,-0.1474137461519766
3.255,-0.12970386057001218
3.2575,-0.1206210900603451
3.26,-0.12085335645499726
3.2625,-0.13029628548715733
3.265,-0.14812258323181596
3.2675,-0.17280056581235242
3.27,-0.20210790115697147
3.2725,-0.23324249342885697
3.275,-0.2630944016776471
3.2775,-0.28866410963429084
3.28,-0.3075741188738478
3.2825,-0.3186187975822242
3.285,-0.3222412911539725
3.2875,-0.3207109903752069
3.29,-0.3177586246708103
3.2925,-0.3176319420200064
3.295,-0.32385715456671316
3.2975,-0.3381897516003493
3.3,-0.3601750444367179
3.3025,-0.3874680875744499
3.305,-0.41673802119842446
3.3075,-0.4447460582147394
3.31,-0.46914464452393373
3.3125,-0.48874051544512875
3.315,-0.5032928540714099
3.3175,-0.5131445731100134
3.32,-0.5189542652257262
3.3225,-0.5215978545319211
3.325,-0.5221529340942971
3.3275,-0.5218526632167854
3.33,-0.521934104421927
3.3325,-0.5233538955667879
3.335,-0.5264187302528461
3.3375,-0.5304648031896902
3.34,-0.533750560904008
3.3425,-0.5336814959395613
3.345,-0.5274187524144546
3.3475,-0.512868720387316
3.35,-0.48997221724196305
3.3525,-0.46205676750793045
3.355,-0.4368017372367908
3.3575,-0.42622623700519663
3.36,-0.445220250080507
3.3625,-0.5085529432496184
3.365,-0.6268544689917567
3.3675,-0.8025304682209874
3.37,-1.0267475036691287
3.3725,-1.278439757966009
3.375,-1.525728214849643
3.3775,-1.7293351392416982
3.38,-1.8468580091398696
3.3825,-1.8366321763515452
3.385,-1.6606422692991583
3.3875,-1.2871779589340457
3.39,-0.6947248052304994
3.3925,0.12189404770836697
3.395,1.1438037590563894
3.3975,2.321367633066155
3.4,3.571925583226015
3.4025,4.784721382563255
3.405,5.8338434021955665
3.4075,6.597637222096394
3.41,6.98090641110523
3.4125,6.93482963202177
3.415,6.469338630323927
3.4175,5.653999331117607
3.42,4.6061177247496445
3.4225,3.4682366212953872
3.425,2.3803446524042813
3.4275,1.4538464671446318
3.43,0.7538958465292571
3.4325,0.29409796915184827
3.435,0.04373880219110267
3.4375,-0.05597032850640893
3.44,-0.07232158402379113
3.4425,-0.06396706875992546
3.445,-0.07018566413794504
3.4475,-0.10786753585458594
3.45,-0.1750329906083873
3.4525,-0.2581621836630834
3.455,-0.34026542285482486
3.4575,-0.4072680182635948
3.46,-0.451466675256431
3.4625,-0.47203743092045375
3.465,-0.47344324972180674
3.4675,-0.46290828531330935
3.47,-0.447956020087796
3.4725,-0.43460196350404784
3.475,-0.4264013121092621
3.4775,-0.42429597513357103
3.48,-0.42708230669062713
3.4825,-0.4322730287154023
3.485,-0.4370955579761974
3.4875,-0.4393536473127725
3.49,-0.43793162069009756
3.4925,-0.4328608146788013
3.495,-0.4250390251774107
3.4975,-0.41580545195739577
3.5,-0.40657078408828295
3.5025,-0.3985964724188723
3.505,-0.3928771984024088
3.5075,-0.3900034785810256
3.51,-0.3899412032911536
3.5125,-0.39182749103793024
3.515,-0.39399318836077196
3.5175,-0.3943462091114715
3.52,-0.39101980595463326
3.5225,-0.382991660908468
3.525,-0.37038459576447125
3.5275,-0.35435802124966975
3.53,-0.3367067286124608
3.5325,-0.31934342779246877
3.535,-0.3037873294340164
3.5375,-0.2907497263974382
3.54,-0.27993644035269644
3.5425,-0.27018272488965883
3.545,-0.2599227751930397
3.5475,-0.247815728648496
3.55,-0.23322756639075987
3.5525,-0.2163248333495843
3.555,-0.19778453837537824
3.5575,-0.17839200796708518
3.56,-0.15883735005196892
3.5625,-0.1397795894294745
3.565,-0.12196578227308323
3.5675,-0.10615346619582727
3.57,-0.09280284660040718
3.5725,-0.08173654452422559
3.575,-0.07200339729804191
3.5775,-0.06204278320692962
3.58,-0.05006576399605597
3.5825,-0.034467080341245564
3.585,-0.014110109752677397
3.5875,0.011550316270785154
3.59,0.04243909306898825
3.5925,0.07786660648187764
3.595,0.11660309423468812
3.5975,0.15710543776604166
3.6,0.19789234915581375
3.6025,0.23791299747077094
3.605,0.2767231864574909
3.6075,0.3144295778504124
3.61,0.3515323591679555
3.6125,0.388814258048228
3.615,0.42728866678761007
3.6175,0.46809644646069243
3.62,0.5122777526396988
3.6225,0.5604959405769803
3.625,0.6128639415364695
3.6275,0.6689413377385522
3.63,0.7278619183428506
3.6325,0.7885349474129324
3.635,0.8498910986622338
3.6375,0.9111306890172185
3.64,0.9718890465922513
3.6425,1.032230282912023
3.645,1.0924561697304755
3.6475,1.1528304050531912
3.65,1.2133690922681861
3.6525,1.2737923935495115
3.655,1.333632092599432
3.6575,1.3924088843802505
3.66,1.4497540993878224
3.6625,1.5053873350990743
3.665,1.55897478070135
3.6675,1.6099833150872205
3.67,1.6576100101371873
3.6725,1.7007385325008162
3.675,1.7378082653481226
3.6775,1.7666005042057928
3.68,1.7841678933312346
3.6825,1.7871929462019907
3.685,1.7728043487841696
3.6875,1.7395053749543752
3.69,1.6877352999720916
3.6925,1.6198004333387355
3.695,1.5392602159883295
3.6975,1.4500766712033695
3.7,1.3558438508026622
3.7025,1.2592755237878948
3.705,1.161977183814723
3.7075,1.064463915033028
3.71,0.9663981282344232
3.7125,0.8670223417013667
3.715,0.7657071467816031
3.7175,0.6624617059448535
3.72,0.5582263504875277
3.7225,0.45482583348709316
3.725,0.3546018171813336
3.7275,0.2598850989547015
3.73,0.1725123168869466
3.7325,0.09352762795192865
3.735,0.023117156810361313
3.7375,-0.03924167309860708
3.74,-0.0944906026576673
3.7425,-0.1436914581924808
3.745,-0.18784427864451123
3.7475,-0.2278480671147141
3.75,-0.2645112232989584
3.7525,-0.298498421723454
3.755,-0.33018080510820574
3.7575,-0.35945303990421457
3.76,-0.3856443817332968
3.7625,-0.40766037021176316
3.765,-0.4244027292321652
3.7675,-0.4353295824817457
3.77,-0.4408616466559641
3.7725,-0.4423704283070821
3.775,-0.4417188821450473
3.7775,-0.44059966672730966
3.78,-0.44003018820295
3.7825,-0.44024750981152044
3.785,-0.4409931025693877
3.7875,-0.4419535049977861
3.79,-0.44306053551659547
3.7925,-0.4444822815030634
3.795,-0.4463661048885505
3.7975,-0.448574595105341
3.8,-0.4506569350442192
3.8025,-0.45211046208730593
3.805,-0.45274720034298194
3.8075,-0.45288020465998485
3.81,-0.4531676491863833
3.8125,-0.45420031119779297
3.815,-0.4561058859020471
3.8175,-0.4584434963676085
3.82,-0.46047182395250597
3.8225,-0.4616185367497847
3.825,-0.4618406149545577
3.8275,-0.46164888684351285
3.83,-0.46180406711214916
3.8325,-0.4628939844701169
3.835,-0.4650399430045
3.8375,-0.4678612445160297
3.84,-0.4706629789237929
3.8425,-0.4727238300250535
3.845,-0.4735825103691543
3.8475,-0.4732736992243515
3.85,-0.47245238151865737
3.8525,-0.472300550307391
3.855,-0.4741563403862665
3.8575,-0.4789653247663772
3.86,-0.4867938489012279
3.8625,-0.49664932695080677
3.865,-0.5067333045784591
3.8675,-0.5150665555313403
3.87,-0.520229901830142
3.8725,-0.5218730498166249
3.875,-0.5207611803355106
3.8775,-0.5183917980452705
3.88,-0.5164201539735539
3.8825,-0.5161551869622243
3.885,-0.518272958876931
3.8875,-0.5227535978992631
3.89,-0.5289686450429096
3.8925,-0.5358574435720677
3.895,-0.5421850472557154
3.8975,-0.5468850428418984
3.9,-0.5494282126180932
3.9025,-0.5500749667392969
3.905,-0.5498476542930677
3.9075,-0.5501505431917594
3.91,-0.5521563317456651
3.9125,-0.5562589503768542
3.915,-0.5619058313787703
3.9175,-0.5679141188271545
3.92,-0.5730788340457533
3.9225,-0.5767127567231046
3.925,-0.5788315494496253
3.9275,-0.5799436421072699
3.93,-0.5806395558931883
3.9325,-0.581254445820772
3.935,-0.5817850924046222
3.9375,-0.5820595325726988
3.94,-0.5819939249586399
3.9425,-0.5817276526923651
3.945,-0.5815392065204669
3.9475,-0.5816285831823439
3.95,-0.5819577671731643
3.9525,-0.5822866620652222
3.955,-0.5823770073606134
3.9575,-0.5821948781999523
3.96,-0.5819402195126931
3.9625,-0.5818756974719604
3.965,-0.58209613908891
3.9675,-0.5824303347347366
3.97,-0.5825599702802392
3.9725,-0.5822636646742338
3.975,-0.5815866893829775
3.9775,-0.580788179107303
3.98,-0.5800913913638747
3.9825,-0.5794187457236357
3.985,-0.5783132685293496
3.9875,-0.5761285431951289
3.99,-0.5723938580718679
3.9925,-0.5671328847735397
3.995,-0.5609211527305618
3.9975,-0.5546319248267626
4.0,-0.5490414245917511
4.0025,-0.544568275864549
4.005,-0.541308598229608
4.0075,-0.539279722798525
4.01,-0.5386189016822056
4.0125,-0.5395519741612096
4.015,-0.5421705977764077
4.0175,-0.5462084171653736
4.02,-0.5509749310094224
4.0225,-0.5554842631168688
4.025,-0.5587324415639193
4.0275,-0.5600420475670326
4.03,-0.5593506131141408
4.0325,-0.5572797492219168
4.035,-0.5548841057913588
4.0375,-0.5531770058255442
4.04,-0.552709830612787
4.0425,-0.5534459365521641
4.045,-0.554929199753683
4.0475,-0.5565350763288802
4.05,-0.5576075881789292
4.0525,-0.5574873325730136
4.055,-0.5555909987789796
4.0575,-0.5516401655486726
4.06,-0.5459339774060584
4.0625,-0.539440003056442
4.065,-0.5335525367874768
4.0675,-0.5295654830527508
4.07,-0.5280960101991644
4.0725,-0.5287695461293339
4.075,-0.5303694762481309
4.0775,-0.5313960691080742
4.08,-0.5307333210964413
4.0825,-0.528076674104055
4.085,-0.5239585538532331
4.0875,-0.5194542938339917
4.09,-0.5157635715658806
4.0925,-0.5138214390066024
4.095,-0.514027374628496
4.0975,-0.5161622342015246
4.1,-0.5195277530767295
4.1025,-0.5232351591265721
4.105,-0.5264640115729917
4.1075,-0.5285398751305903
4.11,-0.5288452086495851
4.1125,-0.5267230426058647
4.115,-0.5215170145284275
4.1175,-0.5127546353733735
4.12,-0.5003674510026508
4.1225,-0.4848265166025873
4.125,-0.4671191267681325
4.1275,-0.44854055099495627
4.13,-0.43031513895002577
4.1325,-0.41313532703914047
4.135,-0.3968027134937939
4.1375,-0.38016877972552027
4.14,-0.36144460155731595
4.1425,-0.33877360861943734
4.145,-0.31086885339588266
4.1475,-0.2775207017098349
4.15,-0.23983427992120582
4.1525,-0.20014529120552216
4.155,-0.16166946541225777
4.1575,-0.12800513969305005
4.16,-0.10259983160359858
4.1625,-0.08824441449024562
4.165,-0.08662017179072161
4.1675,-0.09792490078959397
4.17,-0.12065071570490145
4.1725,-0.15163294536616637
4.175,-0.1864638848336029
4.1775,-0.22025475052495236
4.18,-0.2485998495963358
4.1825,-0.2685166033003342
4.185,-0.2791230245200974
4.1875,-0.28185809250547145
4.19,-0.28013922190639085
4.1925,-0.27848889608271876
4.195,-0.2813414677438841
4.1975,-0.29189472488334434
4.2,-0.3113909321338809
4.2025,-0.339042459946116
4.205,-0.37252857291985403
4.2075,-0.40875116010367607
4.21,-0.4444909617637115
4.2125,-0.4767634025785416
4.215,-0.5029273371353883
4.2175,-0.5207947382315642
4.22,-0.5289749377306833
4.2225,-0.5274330152017285
4.225,-0.517938653090508
4.2275,-0.5040062040653949
4.23,-0.4901652291884021
4.2325,-0.4807738118032601
4.235,-0.4788264710930456
4.2375,-0.48516705313853253
4.24,-0.49826933928252437
4.2425,-0.5145234257710556
4.245,-0.5289231488777891
4.2475,-0.5361228009643235
4.25,-0.5318453393560131
4.2525,-0.5145177939784507
4.255,-0.48685435930596366
4.2575,-0.45695406740627004
4.26,-0.4383389429962434
4.2625,-0.4483583454809466
4.265,-0.5047415312372422
4.2675,-0.6207938787605168
4.27,-0.8004574663608429
4.2725,-1.0347553500733064
4.275,-1.3007798699947486
4.2775,-1.5634720111175373
4.28,-1.7794182674060073
4.2825,-1.901358094911584
4.285,-1.8823729830006695
4.2875,-1.6796043329041228
4.29,-1.2582276114666433
4.2925,-0.5966946823390039
4.295,0.3063572390968616
4.2975,1.4244855955398086
4.3,2.6975448748029565
4.3025,4.030719095585511
4.305,5.301175509684645
4.3075,6.373201901379398
4.31,7.120062017195284
4.3125,7.448204401649688
4.315,7.317816044351265
4.3175,6.753777439285756
4.32,5.843108687929964
4.3225,4.718561795354182
4.325,3.532033224741643
4.3275,2.424564985826628
4.33,1.500740051114678
4.3325,0.8138455364249118
4.335,0.36475167101052214
4.3375,0.11323381720080843
4.34,-0.003071131852112818
4.3425,-0.04853619376389281
4.345,-0.07403815626075606
4.3475,-0.10936372642595815
4.35,-0.16363487923713946
4.3525,-0.23129623932124166
4.355,-0.3001266451411532
4.3575,-0.358211144951167
4.36,-0.39819106604293814
4.3625,-0.4185437339656027
4.365,-0.42259596420003176
4.3675,-0.41635312842481864
4.37,-0.40616875097033517
4.3725,-0.3969718391489497
4.375,-0.3913810616408891
4.3775,-0.38970322591959755
4.38,-0.3905980342437142
4.3825,-0.3920734114691686
4.385,-0.3924357318825153
4.3875,-0.39088189334083495
4.39,-0.3875956142881662
4.3925,-0.38342994378598305
4.395,-0.3794078075336656
4.3975,-0.3762825536972524
4.4,-0.37429630006773046
4.4025,-0.3731441959912775
4.405,-0.3720730982669021
4.4075,-0.3700366082373755
4.41,-0.3658774593894888
4.4125,-0.35856626949644804
4.415,-0.3475259835511109
4.4175,-0.3329786952521453
4.42,-0.3161263437233659
4.4225,-0.29895623720054293
4.425,-0.2836336418864785
4.4275,-0.27171920109686565
4.43,-0.26360455413680184
4.4325,-0.2584452779031471
4.435,-0.2545709437685785
4.4375,-0.25010678743646575
4.44,-0.24351559903338765
4.4425,-0.23391675933416697
4.445,-0.2211847124550881
4.4475,-0.205863192586101
4.45,-0.18891099096409006
4.4525,-0.1713280849526181
4.455,-0.15379606383552089
4.4575,-0.13649759218426924
4.46,-0.11918737004585424
4.4625,-0.10142740652333089
4.465,-0.08280271401976372
4.4675,-0.06298866779050442
4.47,-0.041705695948195134
4.4725,-0.018711346707644877
4.475,0.006081571502908057
4.4775,0.03244365106568222
4.48,0.05978798656518413
4.4825,0.08731792048922563
4.485,0.11429274611696863
4.4875,0.140300649864355
4.49,0.16545594983560277
4.4925,0.19044394431479064
4.495,0.21633835404367202
4.4975,0.24418479573007987
4.5,0.2744834342779092
4.5025,0.30683839856672757
4.505,0.34005494722241814
4.5075,0.37277391054435327
4.51,0.4043954249112641
4.5125,0.4357811224039172
4.515,0.4692573343543871
4.5175,0.5077991157679672
4.52,0.5537523430020378
4.5225,0.6077507004471422
4.525,0.6684066970426461
4.5275,0.7329340291893273
4.53,0.7983546397832881
4.5325,0.8626767322210738
4.535,0.9255355403987108
4.5375,0.988125253917236
4.54,1.0525578054377178
4.5425,1.1209280518114109
4.545,1.1943941299926164
4.5475,1.2725689297614426
4.55,1.3534395294645682
4.5525,1.4338405026005108
4.555,1.5102667271896344
4.5575,1.5796824860027754
4.56,1.6400669244763972
4.5625,1.6906423599937062
4.565,1.7318674132732297
4.5675,1.7652610669796358
4.57,1.7930522893410956
4.5725,1.8176420159670297
4.575,1.840939036647723
4.5775,1.863732360077194
4.58,1.8853176681429396
4.5825,1.9035453708306183
4.585,1.9152950781481917
4.5875,1.9171866277248586
4.59,1.9062449036131113
4.5925,1.880318187308373
4.595,1.8382369370810634
4.5975,1.7798324980254985
4.6,1.7059198412122427
4.6025,1.6182440863600396
4.605,1.519329593446013
4.6075,1.412206911814478
4.61,1.3000664039392027
4.6125,1.1859227451770922
4.615,1.0723534309512806
4.6175,0.9613210226226387
4.62,0.8540513499056895
4.6225,0.7509614025476099
4.625,0.6516882752714633
4.6275,0.5552867710076423
4.63,0.4606070165791571
4.6325,0.3667833469082518
4.635,0.27371072910260497
4.6375,0.1823590710921217
4.64,0.09478518988617989
4.6425,0.013779422298645823
4.645,-0.057773371007202305
4.6475,-0.11761141391970245
4.65,-0.1646631243963154
4.6525,-0.19930896375049956
4.655,-0.223271315698077
4.6575,-0.23914163401055724
4.66,-0.24966734119901446
4.6625,-0.2570579523787258
4.665,-0.2626035450383698
4.6675,-0.26674626960428205
4.67,-0.26949877482995355
4.6725,-0.2709333239821783
4.675,-0.27146573707610383
4.6775,-0.2718131574229611
4.68,-0.2727165920566659
4.6825,-0.27464708262526377
4.685,-0.27767387618027034
4.6875,-0.28152259935785845
4.69,-0.2857289136346177
4.6925,-0.28977147086366395
4.695,-0.29311950102228645
4.6975,-0.2952090944559309
4.7,-0.29543955862295357
4.7025,-0.2933007965510968
4.705,-0.28864707261427724
4.7075,-0.281971027173566
4.71,-0.27445518198068064
4.7125,-0.2676815500070966
4.715,-0.26309521971172106
4.7175,-0.26148218074090873
4.72,-0.2627239210858002
4.7225,-0.2659429264372797
4.725,-0.2699519945950631
4.7275,-0.2737786636749775
4.73,-0.27702486281570554
4.7325,-0.2799330268161726
4.735,-0.28318370070174687
4.7375,-0.2875570219899671
4.74,-0.2936099890032621
4.7425,-0.30147096801997203
4.745,-0.31078889113728536
4.7475,-0.3208388845427853
4.75,-0.33075796242903055
4.7525,-0.3398269188953312
4.755,-0.34766630456873177
4.7575,-0.35425712604583265
4.76,-0.35982275931660074
4.7625,-0.3647011714690191
4.765,-0.36930292814020227
4.7675,-0.37412597510253187
4.77,-0.3797121666126731
4.7725,-0.38647379454238584
4.775,-0.39444759732268586
4.7775,-0.4031299280062829
4.78,-0.4115431427811959
4.7825,-0.4185821212909799
4.785,-0.4235157321899031
4.7875,-0.4263539533858261
4.79,-0.4277951814076944
4.7925,-0.4287170982240826
4.795,-0.42951197908687533
4.7975,-0.4297184341437359
4.8,-0.4282382552918113
4.8025,-0.42406322933818896
4.805,-0.4171107998631001
4.8075,-0.4086833558251442
4.81,-0.40126872465681984
4.8125,-0.39774354505706266
4.815,-0.40032059271634574
4.8175,-0.409684275359938
4.82,-0.4246726910370419
4.8225,-0.44262079306245644
4.825,-0.4601763872480327
4.8275,-0.4742138078880161
4.83,-0.4825143282924901
4.8325,-0.4840781454544481
4.835,-0.47910424127091356
4.8375,-0.4687579913119169
4.84,-0.4548821577912382
4.8425,-0.4397830605484837
4.845,-0.4261013840645399
4.8475,-0.4166288005874392
4.85,-0.4138999109480531
4.8525,-0.41952664741359325
4.855,-0.4334723028870217
4.8575,-0.45364033408657295
4.86,-0.47612841212096985
4.8625,-0.49621646738314273
4.865,-0.5097666552658873
4.8675,-0.5144869132733435
4.87,-0.5105983567067285
4.8725,-0.5007398793012207
4.875,-0.489214634077833
4.8775,-0.4808268713411401
4.88,-0.47962071997936384
4.8825,-0.4878530954991801
4.885,-0.5054680687680707
4.8875,-0.5301725110055066
4.89,-0.5580314073362611
4.8925,-0.5844096204928144
4.895,-0.6050674716625153
4.8975,-0.6171781231721323
4.9,-0.6199913397619866
4.9025,-0.614937758348315
4.905,-0.6051580668181903
4.9075,-0.5946160744308647
4.91,-0.5870303661075319
4.9125,-0.5848843939629804
4.915,-0.5887913710631366
4.9175,-0.5974417661157634
4.92,-0.6081843902856718
4.9225,-0.6180372719188609
4.925,-0.6247344452858786
4.9275,-0.6274019984665201
4.93,-0.6266254887619135
4.9325,-0.6239353662358332
4.935,-0.6209811864091873
4.9375,-0.618788100757949
4.94,-0.6174338180013252
4.9425,-0.6162673309435122
4.945,-0.6145106779081125
4.9475,-0.6118864572691834
4.95,-0.6089119011381788
4.9525,-0.6066993088191039
4.955,-0.6063812287990327
4.9575,-0.6084793816864869
4.96,-0.6125637436044594
4.9625,-0.617393371959353
4.965,-0.6214694951641861
4.9675,-0.623711607146044
4.97,-0.6239166224079742
4.9725,-0.6227865928794708
4.975,-0.6215204895259454
4.9775,-0.6211651245429423
4.98,-0.6220397021216296
4.9825,-0.6235237838365704
4.985,-0.6243105312176582
4.9875,-0.622972214741873
4.99,-0.6185414048337766
4.9925,-0.6108770414495411
4.995,-0.6007626885987477
4.9975,-0.5897889791095456
5.0,-0.5800477619487517
5.0025,-0.5736325171049171
5.005,-0.5720180142367993
5.0075,-0.5755373017665726
5.01,-0.5832208833436757
5.0125,-0.5931164037383106
5.015,-0.6029540307380234
5.0175,-0.6108460658970379
5.02,-0.6157284573784282
5.0225,-0.6174406845412278
5.025,-0.6165490009542347
5.0275,-0.6140872234908847
5.03,-0.6112991490192345
5.0325,-0.609356160030953
5.035,-0.609029538505878
5.0375,-0.610403342695664
5.04,-0.6127882633797105
5.0425,-0.6149424782611883
5.045,-0.6155433135918668
5.0475,-0.6136906835851661
5.05,-0.6091720648067028
5.0525,-0.6023261673426151
5.055,-0.5935654964662535
5.0575,-0.5828417108784709
5.06,-0.5694124826656614
5.0625,-0.5521005311693722
5.065,-0.5299120017794097
5.0675,-0.5026508047629465
5.07,-0.47120431320672596
5.0725,-0.4374040684156304
5.075,-0.40355993378034044
5.0775,-0.3718264073626731
5.08,-0.3435677673136778
5.0825,-0.31891763783218136
5.085,-0.2967245433333688
5.0875,-0.2749677311817787
5.09,-0.2515386127425795
5.0925,-0.22510440213463026
5.095,-0.19571551585469396
5.0975,-0.16494441710673247
5.1,-0.13556196827796166
5.1025,-0.11090843835517297
5.105,-0.09414935570054442
5.1075,-0.08758331665862303
5.11,-0.092129297360962
5.1125,-0.10706529735676867
5.115,-0.1300528458464949
5.1175,-0.1574928355461237
5.12,-0.18524661893904923
5.1225,-0.20962647293940573
5.125,-0.22837280713851468
5.1275,-0.24127574467801804
5.13,-0.2502289963900806
5.1325,-0.25870618230982284
5.135,-0.2708152954469865
5.1375,-0.29019988253730683
5.14,-0.3190957867345437
5.1425,-0.35778877826713756
5.145,-0.4045846400036465
5.1475,-0.4562593598134674
5.15,-0.508826382277286
5.1525,-0.5583733505578359
5.155,-0.601737019083018
5.1575,-0.6368880900463753
5.16,-0.6630023504642641
5.1625,-0.6802626272570496
5.165,-0.6895026485840929
5.1675,-0.6918708919965724
5.17,-0.6886916801672162
5.1725,-0.6815796139414975
5.175,-0.6726590140888916
5.1775,-0.6645847598742097
5.18,-0.6601099820143312
5.1825,-0.6612164446283361
5.185,-0.6681283982466273
5.1875,-0.6786694332239739
5.19,-0.6883723497709592
5.1925,-0.6915909875632693
5.195,-0.6836004035457898
5.1975,-0.6632798051710617
5.2,-0.6355321321266003
5.2025,-0.6123354374239329
5.205,-0.6114966722361679
5.2075,-0.6528671890865952
5.21,-0.7527670369444883
5.2125,-0.9182041187858826
5.215,-1.1427169723501658
5.2175,-1.4051357948847254
5.22,-1.6714564866106991
5.2225,-1.8988757882992013
5.225,-2.040424499315073
5.2275,-2.0489076040545395
5.23,-1.8799090146585318
5.2325,-1.494864512521533
5.235,-0.8658317780834952
5.2375,0.017013608168095207
5.24,1.1359055065997272
5.2425,2.4369300654925734
5.245,3.8265718008024234
5.2475,5.177081547041752
5.25,6.342088946659068
5.2525,7.1805622875297015
5.255,7.584079506649075
5.2575,7.500528842528622
5.26,6.947531224160232
5.2625,6.011205496695456
5.265,4.829792683664865
5.2675,3.5659195508661004
5.27,2.3745387654310486
5.2725,1.3747587239886807
5.275,0.6324264043190537
5.2775,0.15684780041730612
5.28,-0.08933695878684984
5.2825,-0.17172894248573164
5.285,-0.163440937604633
5.2875,-0.12770842078678912
5.29,-0.10733983113701619
5.2925,-0.12189711894787675
5.295,-0.17130059366973782
5.2975,-0.24320244398614008
5.3,-0.3211090189540279
5.3025,-0.3908026854849885
5.305,-0.4438137585537438
5.3075,-0.47798078908864133
5.31,-0.4960042873124248
5.3125,-0.5031488697707399
5.315,-0.5050300308026691
5.3175,-0.5060276688329592
5.32,-0.5085175353922369
5.3225,-0.5128664948492317
5.325,-0.5179731832161409
5.3275,-0.5220446876415668
5.33,-0.5233091079880816
5.3325,-0.5204711372398433
5.335,-0.5128654765893278
5.3375,-0.5003877924527154
5.34,-0.48335050131336765
5.3425,-0.4623979184587803
5.345,-0.4385212751903316
5.3475,-0.41310286154789705
5.35,-0.38788250058168444
5.3525,-0.36478935102168153
5.355,-0.3456408524230595
5.3575,-0.3317425859861924
5.36,-0.3234736976759317
5.3625,-0.32001916655025253
5.365,-0.3194267171665589
5.3675,-0.31905762294059886
5.37,-0.3163121804554918
5.3725,-0.30935471635163675
5.375,-0.29753957203470366
5.3775,-0.2813749785317568
5.38,-0.2620801722251283
5.3825,-0.24096869537279222
5.385,-0.218947127602759
5.3875,-0.19634065153357375
5.39,-0.1730843566666811
5.3925,-0.14913781400599793
5.395,-0.12488385585188615
5.3975,-0.10130540160945678
5.4,-0.07986763308827612
5.4025,-0.062171118350091516
5.405,-0.04949620782176151
5.4075,-0.04235011264153499
5.41,-0.04013679507646757
5.4125,-0.04109090103638664
5.415,-0.04256622321118638
5.4175,-0.041628158034516353
5.42,-0.03575751910456816
5.4225,-0.023427179346329485
5.425,-0.004378597000796293
5.4275,0.02045388373346808
5.43,0.04930979211521191
5.4325,0.080129316827082
5.435,0.11109108132660817
5.4375,0.14103153582989716
5.44,0.16965926620670657
5.4425,0.197538362937026
5.445,0.22587326693716325
5.4475,0.2561556506202216
5.45,0.28974639656030793
5.4525,0.32749851001904384
5.455,0.36955867045706675
5.4575,0.4154449412773652
5.46,0.46436697726551823
5.4625,0.5156132457814204
5.465,0.5687854276114416
5.4675,0.6237590892218159
5.47,0.6804475835403963
5.4725,0.7386154347670546
5.475,0.7979691620516823
5.4775,0.8585099455646009
5.48,0.9208609095157998
5.4825,0.9862484358998262
5.485,1.0560515797881982
5.4875,1.131106018595982
5.49,1.2110588677578573
5.4925,1.2940324535593453
5.495,1.3767708967825074
5.4975,1.4553247017874262
5.5,1.526128140430979
5.5025,1.5870904479487993
5.505,1.6382259827243175
5.5075,1.681518312273364
5.51,1.7200732630696467
5.5125,1.7569410808043637
5.515,1.7940992920382048
5.5175,1.8319590903881589
5.52,1.8694713624144752
5.5225,1.9046005750337112
5.525,1.9347806877888116
5.5275,1.9570942649436986
5.53,1.9682522443091812
5.5325,1.964718626588853
5.535,1.9432637959962977
5.5375,1.901858590141922
5.54,1.8404468359832504
5.5425,1.7610987270667828
5.545,1.667408627157303
5.5475,1.5634660866997445
5.55,1.4529287195329783
5.5525,1.3385507276595328
5.555,1.2221828194078426
5.5575,1.1050390436939304
5.56,0.9880084288403135
5.5625,0.8718724910659883
5.565,0.7573807398058636
5.5675,0.6452249355935111
5.57,0.536023972044804
5.5725,0.43042966726184356
5.575,0.32936732841638444
5.5775,0.2342890421558258
5.58,0.14723664335366773
5.5825,0.07055980577558103
5.585,0.006312601584653407
5.5875,-0.04444903526311113
5.59,-0.08217419506998005
5.5925,-0.1089286473333185
5.595,-0.12807270115031796
5.5975,-0.14358414113918727
5.6,-0.15917012836146813
5.6025,-0.17737217221218748
5.605,-0.19893237562043697
5.6075,-0.22269386046949477
5.61,-0.24616836772160933
5.6125,-0.2666222527967646
5.615,-0.28225738834684366
5.6175,-0.29298271140870125
5.62,-0.3004419891638634
5.6225,-0.30728651813768404
5.625,-0.3160098683258829
5.6275,-0.32786409003154743
5.63,-0.34234804825527376
5.6325,-0.3574762516022875
5.635,-0.3706453405984589
5.6375,-0.37966180370665625
5.64,-0.3835056747363042
5.6425,-0.38259687456163416
5.645,-0.3785547096517574
5.6475,-0.37361287670213145
5.65,-0.36993587604384437
5.6525,-0.3690701367880621
5.655,-0.37168470606866977
5.6575,-0.37763884622269067
5.66,-0.38626679317039986
5.6625,-0.3966623869193792
5.665,-0.407797777737452
5.6675,-0.41851386223059334
5.67,-0.4275775274914618
5.6725,-0.4339435569178485
5.675,-0.43714905197407194
5.6775,-0.4376039722161961
5.68,-0.43654875214274236
5.6825,-0.43561487275997884
5.685,-0.4361484932862467
5.6875,-0.43861970550419305
5.69,-0.4424417474484253
5.6925,-0.4463362990376933
5.695,-0.44908028050165333
5.6975,-0.4502303565415807
5.7,-0.45041838738320006
5.7025,-0.45106954378495423
5.705,-0.4537335175995982
5.7075,-0.4593976691552473
5.71,-0.4680903247384235
5.7125,-0.47890096725963843
5.715,-0.49037225336993906
5.7175,-0.5010777679493379
5.72,-0.5101040204782792
5.7225,-0.5171964285773577
5.725,-0.5225398233651358
5.7275,-0.5263803349560495
5.73,-0.5287663966268641
5.7325,-0.5295550980733169
5.735,-0.5286217369371788
5.7375,-0.5260796912909397
5.74,-0.5223476968022398
5.7425,-0.5180533053045965
5.745,-0.5138854444079305
5.7475,-0.5104893173163646
5.75,-0.5083914465397825
5.7525,-0.5079059401764994
5.755,-0.5090496177303702
5.7575,-0.5115629347194655
5.76,-0.5150753235836361
5.7625,-0.5193164764532424
5.765,-0.5242174418295965
5.7675,-0.5298309992420651
5.77,-0.5361411989849701
5.7725,-0.5429092764910479
5.775,-0.5496724933783385
5.7775,-0.5559086370369482
5.78,-0.5612733600476744
5.7825,-0.5657659146701975
5.785,-0.5697038391741129
5.7875,-0.5734883159536052
5.79,-0.5772798811424393
5.7925,-0.5807859936422906
5.795,-0.5833022004216533
5.7975,-0.583978409975504
5.8,-0.5821527164299888
5.8025,-0.5776138447226087
5.805,-0.5707520634397458
5.8075,-0.5625993115519027
5.81,-0.5547162925065685
5.8125,-0.5488561920882656
5.815,-0.5464143534907719
5.8175,-0.5478429193408053
5.82,-0.552339229225221
5.8225,-0.5580599665753052
5.825,-0.5628431019686889
5.8275,-0.5650988636242891
5.83,-0.5644104454685328
5.8325,-0.5615749254927109
5.835,-0.5581556075705072
5.8375,-0.5558365277359457
5.84,-0.5558557307591143
5.8425,-0.5586597674442141
5.845,-0.5638259190157319
5.8475,-0.5702616301936764
5.85,-0.5766267345067974
5.8525,-0.5818149459516456
5.855,-0.5852760774988272
5.8575,-0.5870418653056884
5.86,-0.5874957842546089
5.8625,-0.5870740759572669
5.865,-0.5860917747396895
5.8675,-0.5847502857289594
5.87,-0.5832173744883226
5.8725,-0.5816234605386842
5.875,-0.5799358309883662
5.8775,-0.5778349927120204
5.88,-0.5747509456579429
5.8825,-0.5700905304685057
5.885,-0.5635364108571908
5.8875,-0.5552538566941759
5.89,-0.5459061317547816
5.8925,-0.5364781100732312
5.895,-0.5279860945301983
5.8975,-0.5211943390228709
5.9,-0.5164484009285473
5.9025,-0.5136618115776209
5.905,-0.5124060410049672
5.9075,-0.512030553015522
5.91,-0.5117807564833088
5.9125,-0.510919483101373
5.915,-0.5088556220097069
5.9175,-0.5052641526650162
5.92,-0.5001742289297644
5.9225,-0.4940030834193075
5.925,-0.4875025108884049
5.9275,-0.48157571308567404
5.93,-0.4769700103464794
5.9325,-0.4739591424019661
5.935,-0.4722008986516186
5.9375,-0.47089651889779616
5.94,-0.4692073497018491
5.9425,-0.4667185073562655
5.945,-0.4636963635739156
5.9475,-0.46099886998546946
5.95,-0.459688611098978
5.9525,-0.4605463901381755
5.955,-0.4637136141875186
5.9575,-0.4686118941482927
5.96,-0.4741506704226708
5.9625,-0.47909379157877713
5.965,-0.48238056020582976
5.9675,-0.4832538373455754
5.97,-0.4812110562253499
5.9725,-0.47591461921658407
5.975,-0.46716530096677594
5.9775,-0.45492668746335235
5.98,-0.4393467076849234
5.9825,-0.42078653149798145
5.985,-0.39991306088266404
5.9875,-0.3778414807177314
5.99,-0.35619560339154144
5.9925,-0.33692789930698874
5.995,-0.32185834931168983
5.9975,-0.31206883146477604
6.0,-0.3073966826674176
6.0025,-0.30623807773876627
6.005,-0.3057399855986811
6.0075,-0.30232780816263094
6.01,-0.2924472835334733
6.0125,-0.27338099998568116
6.015,-0.2439845370635545
6.0175,-0.20516719815138154
6.02,-0.15996650399099951
6.0225,-0.1131619266657562
6.025,-0.07049365511054277
6.0275,-0.03763623102661723
6.03,-0.019120243025298425
6.0325,-0.017417195620585423
6.035,-0.03239917155226853
6.0375,-0.06133259342064625
6.04,-0.09944229757541603
6.0425,-0.14090691712759576
6.045,-0.1800081342692328
6.0475,-0.2121487979323985
6.05,-0.2345724004412043
6.0525,-0.24675479935852918
6.055,-0.2504951170364952
6.0575,-0.2496858478557389
6.06,-0.24967012321148865
6.0625,-0.25611995211013383
6.065,-0.27355979043032447
6.0675,-0.30394682460228367
6.07,-0.3459042788616681
6.0725,-0.3950660312141678
6.075,-0.44549042772148384
6.0775,-0.49151960352112584
6.08,-0.5292298329771351
6.0825,-0.5569250886209515
6.085,-0.574726159717215
6.0875,-0.583763566351956
6.09,-0.5855383263215594
6.0925,-0.581736762598742
6.095,-0.574412976647913
6.0975,-0.5661983338931377
6.1,-0.5601749641866701
6.1025,-0.5592538417632986
6.105,-0.565195064563309
6.1075,-0.5776372466527068
6.11,-0.5935899822064039
6.1125,-0.6077752127958085
6.115,-0.6139730589145003
6.1175,-0.607180618452048
6.12,-0.586053865697827
6.1225,-0.5549002893109394
6.125,-0.5244796809963921
6.1275,-0.5110579282456752
6.13,-0.5335466797525207
6.1325,-0.6091221286767968
6.135,-0.7482991990594297
6.1375,-0.9507710638037845
6.14,-1.2031751136444904
6.1425,-1.4793111187501562
6.145,-1.7424885297552957
6.1475,-1.9490413574820533
6.15,-2.0519662399962444
6.1525,-2.00416864343459
6.155,-1.7616576457426327
6.1575,-1.2877238243963047
6.16,-0.5591897340810601
6.1625,0.425043602049822
6.165,1.6345934998025313
6.1675,3.0005436105618712
6.17,4.414779883380427
6.1725,5.738864725292896
6.175,6.823014437673454
6.1775,7.532287771091983
6.18,7.774045975694411
6.1825,7.519345272672086
6.185,6.811848852690914
6.1875,5.760929352224365
6.19,4.519968975616392
6.1925,3.2551362537897246
6.195,2.112748936965639
6.1975,1.1936909036488235
6.2,0.5410033122740778
6.2025,0.1425224905257077
6.205,-0.05412229982362717
6.2075,-0.12006940906348175
6.21,-0.12421852999144896
6.2125,-0.11822702430771755
6.215,-0.13026117278282687
6.2175,-0.1670415906549597
6.22,-0.22123429038118603
6.2225,-0.2802378854938428
6.225,-0.3330334909705785
6.2275,-0.3734815047548013
6.23,-0.4003546620705279
6.2325,-0.4155977178733283
6.235,-0.4223976609707008
6.2375,-0.4239336558384078
6.24,-0.422852346466454
6.2425,-0.4211052724645646
6.245,-0.41984591548213257
6.2475,-0.41935171083430944
6.25,-0.41911667232830047
6.2525,-0.41820995759831614
6.255,-0.4157884052738311
6.2575,-0.41150159997977076
6.26,-0.40558696039851705
6.2625,-0.39865965659797525
6.265,-0.3913688673200459
6.2675,-0.38410641073316254
6.27,-0.3768666784500909
6.2725,-0.36927599834728736
6.275,-0.36077332603972795
6.2775,-0.3509008009662135
6.28,-0.3396231622135358
6.2825,-0.3275460934104644
6.285,-0.3158874145982622
6.2875,-0.3061326833706899
6.29,-0.29948182657498573
6.2925,-0.2963466928035243
6.295,-0.2961440581013998
6.2975,-0.2974476659089488
6.3,-0.2983772569307644
6.3025,-0.29704964771471976
6.305,-0.2919801618245898
6.3075,-0.2823880802897327
6.31,-0.2683621861922465
6.3125,-0.25083170330982607
6.315,-0.231334938163356
6.3175,-0.21165265859644355
6.32,-0.19339443104209095
6.3225,-0.17760463851581895
6.325,-0.16447196036345457
6.3275,-0.15327470284208702
6.33,-0.14265967007272162
6.3325,-0.13118267706479045
6.335,-0.11785390672499185
6.3375,-0.10240032762002355
6.34,-0.08511382211685474
6.3425,-0.06638551173388099
6.345,-0.04620173638894102
6.3475,-0.023910248747421967
6.35,0.0015764248435823022
6.3525,0.031230625842425124
6.355,0.0653144347824228
6.3575,0.10306445205806768
6.36,0.142814479725177
6.3625,0.18248598134451366
6.365,0.22022364888825166
6.3675,0.254936039627966
6.37,0.2865878833517504
6.3725,0.3162060048702641
6.375,0.3456455266605905
6.3775,0.377194419005506
6.38,0.41308921338722004
6.3825,0.4550235081356342
6.385,0.5037759357971308
6.3875,0.5591035719253963
6.39,0.6199636071825533
6.3925,0.6849624284654372
6.395,0.7528048336764164
6.3975,0.8225317614408677
6.4,0.8934874292736231
6.4025,0.9651319875021268
6.405,1.0368928918132168
6.4075,1.1081940913062207
6.41,1.1786636976432447
6.4125,1.2483746071623938
6.415,1.3179077058650772
6.4175,1.3881097610990467
6.42,1.4596135408409994
6.4225,1.5323573117936378
6.425,1.6053587885033131
6.4275,1.6768581588542295
6.43,1.7447470318654568
6.4325,1.807069323547207
6.435,1.8623798760155967
6.4375,1.9098473133552945
6.44,1.949118078132346
6.4425,1.98006794030584
6.445,2.0026070782858
6.4475,2.016628391209156
6.45,2.022044409152463
6.4525,2.018788507618303
6.455,2.0067187365422057
6.4575,1.985456517609385
6.46,1.9542261971153347
6.4625,1.9117689151848456
6.465,1.8564318999895066
6.4675,1.786528158016521
6.47,1.700945160119714
6.4725,1.5997959737238392
6.475,1.4848109457269973
6.4775,1.3592762248682306
6.48,1.2275609137567525
6.4825,1.0944345912779485
6.485,0.964358850826579
6.4875,0.8408486150540123
6.49,0.7259928741222749
6.4925,0.6202767866252641
6.495,0.5228121615791731
6.4975,0.43192437055428967
6.5,0.3458813193147891
6.5025,0.2635015977450524
6.505,0.18445828383979843
6.5075,0.10923959227621918
6.51,0.038850530366175855
6.5125,-0.025608110453816335
6.515,-0.08334163077300855
6.5175,-0.13410948044896603
6.52,-0.178229640365876
6.5225,-0.21636089617384327
6.525,-0.2492023464901144
6.5275,-0.2772725726962952
6.53,-0.3008506371215342
6.5325,-0.32006170975717213
6.535,-0.335032188931968
6.5375,-0.34602658495432753
6.54,-0.3535047842559972
6.5425,-0.3580888976610445
6.545,-0.360473684796006
6.5475,-0.3613362168673599
6.55,-0.36129514105514526
6.5525,-0.3609291087786416
6.555,-0.36080073386179146
6.5575,-0.36140642168021925
6.56,-0.36303259862215037
6.5625,-0.3656037201308496
6.565,-0.3686521096639045
6.5675,-0.3714722927050606
6.57,-0.3734001899930761
6.5725,-0.37408441212385296
6.575,-0.37363746037976425
6.5775,-0.3726181255268368
6.58,-0.371848419179336
6.5825,-0.3721290324785103
6.585,-0.37399181761782163
6.5875,-0.3776257446064108
6.59,-0.3829794505506545
6.5925,-0.38989140430352737
6.595,-0.39808878734287095
6.5975,-0.4070384313631224
6.6,-0.4157902636789568
6.6025,-0.4230048135722968
6.605,-0.42727796072057456
6.6075,-0.42769894086924387
6.61,-0.424380450998486
6.6125,-0.41863114423271713
6.615,-0.4126056798690751
6.6175,-0.4085702989395343
6.62,-0.4081327150146099
6.6225,-0.41177472075154586
6.625,-0.41885361231331825
6.6275,-0.42802711917867997
6.63,-0.4378855732883948
6.6325,-0.4474977889306129
6.635,-0.45663616867804846
6.6375,-0.46562207038812675
6.64,-0.4749214502668766
6.6425,-0.4847156459717997
6.645,-0.49464778700534384
6.6475,-0.5038454158287974
6.65,-0.5111928517993904
6.6525,-0.5157189580817967
6.655,-0.5169364511942303
6.6575,-0.5150383895805171
6.66,-0.510952945488425
6.6625,-0.5062772196983665
6.665,-0.5030574120231229
6.6675,-0.5033689423539027
6.67,-0.5087432748871986
6.6725,-0.5196121274831194
6.675,-0.5349754276319639
6.6775,-0.5524281430729145
6.68,-0.5685780114084127
6.6825,-0.5798017089002386
6.685,-0.5831979416427844
6.6875,-0.5774905358623551
6.69,-0.5635805153156688
6.6925,-0.5445129922066078
6.695,-0.5247953984612374
6.6975,-0.5092164538678046
6.7,-0.5015118128784417
6.7025,-0.503318837784879
6.705,-0.5137866680112345
6.7075,-0.5299835469459886
6.71,-0.5479606511759714
6.7125,-0.5640733567764982
6.715,-0.5760367574122423
6.7175,-0.5833216926251561
6.72,-0.5868474890909249
6.7225,-0.5882636834986219
6.725,-0.5892132160869793
6.7275,-0.5908364179180187
6.73,-0.5935821654511603
6.7325,-0.5972762111508
6.735,-0.6013586032499714
6.7375,-0.6051834327385477
6.74,-0.6082604821460253
6.7425,-0.6103514532931944
6.745,-0.6114294626206896
6.7475,-0.6115985333215077
6.75,-0.6110608462224622
6.7525,-0.6101263687556404
6.755,-0.6091851618474876
6.7575,-0.6085780767865513
6.76,-0.6083895048588843
6.7625,-0.6082775333169006
6.765,-0.6074804900714667
6.7675,-0.6050677081236605
6.77,-0.6003739202611725
6.7725,-0.5934335541217055
6.775,-0.5851780303618751
6.7775,-0.5772396632099464
6.78,-0.5714082595186958
6.7825,-0.5689760123854819
6.785,-0.5702491634591177
6.7875,-0.5744093237402041
6.79,-0.5797714038054762
6.7925,-0.5843622722347778
6.795,-0.586628701243688
6.7975,-0.5859970000553696
6.8,-0.5830327154729429
6.8025,-0.5791316904939205
6.805,-0.5759108209656596
6.8075,-0.574584450319496
6.81,-0.5755642732098764
6.8125,-0.578402934029202
6.815,-0.5820773484811237
6.8175,-0.5854717908908327
6.82,-0.5878232683037211
6.8225,-0.5889226376571146
6.825,-0.5890183156694294
6.8275,-0.5885397566426955
6.83,-0.5878397014962121
6.8325,-0.5871011639321301
6.835,-0.5864092817162226
6.8375,-0.5858639879665927
6.84,-0.5855966055947398
6.8425,-0.5856459600676363
6.845,-0.5857741312500919
6.8475,-0.5853739068089022
6.85,-0.583590084983877
6.8525,-0.5796626393199358
6.855,-0.5733619182393697
6.8575,-0.5652917063470146
6.86,-0.5568574507845697
6.8625,-0.5498601346632667
6.865,-0.5458822070726495
6.8675,-0.5457281623161746
6.87,-0.5491282626923819
6.8725,-0.554793871560649
6.875,-0.5608022359585934
6.8775,-0.5651902203951295
6.88,-0.5665476260880542
6.8825,-0.5643784148881366
6.885,-0.5591071584497803
6.8875,-0.5517987707670327
6.89,-0.5437743619673683
6.8925,-0.5362678854435067
6.895,-0.5301803511431505
6.8975,-0.5259655426270041
6.9,-0.5236842135247461
6.9025,-0.5231984588119526
6.905,-0.5243684948222787
6.9075,-0.5270830138339557
6.91,-0.5310670770740507
6.9125,-0.5355917201254441
6.915,-0.5393094744913467
6.9175,-0.5403814085637678
6.92,-0.536896686455753
6.9225,-0.5274381378363087
6.925,-0.5116021917557614
6.9275,-0.49032195144663027
6.93,-0.4658896114435764
6.9325,-0.44160060402396706
6.935,-0.42100376017397845
6.9375,-0.4068778255253888
6.94,-0.40020894997883205
6.9425,-0.39952872074878615
6.945,-0.40093279811066085
6.9475,-0.39891118422219346
6.95,-0.38782510744072374
6.9525,-0.3636032533633088
6.955,-0.32513686693132815
6.9575,-0.2749399903411521
6.96,-0.21883928549309742
6.9625,-0.16472564732428202
6.965,-0.12069755432298614
6.9675,-0.09314114972022493
6.97,-0.08530315849009397
6.9725,-0.09671986074381339
6.975,-0.12358495614668578
6.9775,-0.15988999487914574
6.98,-0.19900055095055372
6.9825,-0.23523343703854135
6.985,-0.2649883837998428
6.9875,-0.28712200906783575
6.99,-0.30254183475049007
6.9925,-0.31331001131513897
6.995,-0.32170246501440775
6.9975,-0.3296109023978689
7.0,-0.33845451904763346
7.0025,-0.3494658625776848
7.005,-0.3639742969774104
7.0075,-0.3833236670422916
7.01,-0.40836237905189127
7.0125,-0.4388010018355707
7.015,-0.47286519883624545
7.0175,-0.5075175964181428
7.02,-0.5392231083486193
7.0225,-0.564967086017952
7.025,-0.5831244980295848
7.0275,-0.5938567940175994
7.03,-0.5989222556998985
7.0325,-0.6010127978980809
7.035,-0.6028823626560122
7.0375,-0.6065670188342874
7.04,-0.6129167114498884
7.0425,-0.6215086320956428
7.045,-0.6308681606581218
7.0475,-0.638844609701316
7.05,-0.6429893375272734
7.0525,-0.6408628052034465
7.055,-0.63035039216003
7.0575,-0.6102116221795244
7.06,-0.5810523295664002
7.0625,-0.546606949694512
7.065,-0.5148039628218211
7.0675,-0.4978662624628082
7.07,-0.5108783625704001
7.0725,-0.5687940269843442
7.075,-0.6824966705302664
7.0775,-0.8549352298770689
7.08,-1.0783576606323588
7.0825,-1.3332923250805908
7.085,-1.5893643926115717
7.0875,-1.807510164001552
7.09,-1.942905003701794
7.0925,-1.9481109626374598
7.095,-1.7765308149891381
7.0975,-1.3869017450266146
7.1,-0.7497611502115626
7.1025,0.14384692958230702
7.105,1.272641929590037
7.1075,2.577245358724451
7.11,3.958004371732091
7.1125,5.281780590644286
7.115,6.398887497365675
7.1175,7.168223681009769
7.12,7.485435528514105
7.1225,7.3068505495551666
7.125,6.66201285324827
7.1275,5.65027980745366
7.13,4.421412377785663
7.1325,3.1448892354038747
7.135,1.9760571087109604
7.1375,1.0279548026431473
7.14,0.35552874353196295
7.1425,-0.045065217717140976
7.145,-0.2237749126766327
7.1475,-0.2556707173027736
7.15,-0.21831539471622027
7.1525,-0.17360650065743807
7.155,-0.15796417334140583
7.1575,-0.1816711102625047
7.16,-0.2353979526262231
7.1625,-0.30028229965142805
7.165,-0.35767205424620635
7.1675,-0.3956382207527429
7.17,-0.41110854472657715
7.1725,-0.40825596548027837
7.175,-0.39491577570307107
7.1775,-0.378973426767251
7.18,-0.36602490721724124
7.1825,-0.3586587637991793
7.185,-0.3569478823742459
7.1875,-0.3594421635042706
7.19,-0.3640899917421538
7.1925,-0.36884893945919545
7.195,-0.37202474208225067
7.1975,-0.37248412616226445
7.2,-0.36983277730100783
7.2025,-0.36451679547334365
7.205,-0.3577178273881621
7.2075,-0.35097201366151876
7.21,-0.3456241292313767
7.2125,-0.3423663628715778
7.215,-0.3410683851509106
7.2175,-0.3409179474771252
7.22,-0.34072279540859746
7.2225,-0.3392016305421847
7.225,-0.3351988781613405
7.2275,-0.3278712319467852
7.23,-0.3169007694586333
7.2325,-0.3026856868507673
7.235,-0.28635515364506803
7.2375,-0.269481768604123
7.24,-0.2535475855095023
7.2425,-0.23942134756620154
7.245,-0.22713448181530654
7.2475,-0.2160516491359918
7.25,-0.2052865819976892
7.2525,-0.19412076476814924
7.255,-0.1822527179857149
7.2575,-0.16980611885547947
7.26,-0.1571008406501157
7.2625,-0.14428957016560662
7.265,-0.13106637409838026
7.2675,-0.11664768849995896
7.27,-0.10006304793344409
7.2725,-0.08059096957564098
7.275,-0.05810510270679851
7.2775,-0.03319500839628936
7.28,-0.00706669607854096
7.2825,0.018721969519088413
7.285,0.042656380981746025
7.2875,0.06373616597343616
7.29,0.08188896665081172
7.2925,0.09815866736895604
7.295,0.1145724821796036
7.2975,0.1337106284790785
7.3,0.15807793887809762
7.3025,0.18941096985864792
7.305,0.22810265229378968
7.3075,0.2729725415793213
7.31,0.32155705991197314
7.3125,0.37088809780646403
7.315,0.4184620639004145
7.3175,0.4629776999358183
7.32,0.5045741904294938
7.3225,0.5446175673572704
7.325,0.5852823394001851
7.3275,0.6291208912961377
7.33,0.6786434722786252
7.3325,0.7358468222001852
7.335,0.8016858572871948
7.3375,0.8756152634899625
7.34,0.9554351151533758
7.3425,1.0376507079581887
7.345,1.118353119186939
7.3475,1.1943360513587877
7.35,1.2639850214733013
7.3525,1.3275506145930636
7.355,1.3867186831750764
7.3575,1.4437433608136974
7.36,1.5006039892036938
7.3625,1.558555014856153
7.365,1.6181165026779247
7.3675,1.679249640138191
7.37,1.7414198852891676
7.3725,1.8034745196932673
7.375,1.8635189252341613
7.3775,1.9190422350618563
7.38,1.9673878992774994
7.3825,2.0064135189271486
7.385,2.0350005471346697
7.3875,2.0530929204217667
7.39,2.061198108449518
7.3925,2.0596337705648025
7.395,2.0479903061098015
7.3975,2.0251357360643607
7.4,1.9897085484344152
7.4025,1.940726050717187
7.405,1.8779228661621399
7.4075,1.8016997841207696
7.41,1.712865488887995
7.4125,1.612470088403736
7.415,1.5019124006495375
7.4175,1.3832583888793726
7.42,1.2594958993396386
7.4225,1.134406448548678
7.425,1.0119163178686497
7.4275,0.8951243382547831
7.43,0.7854766018112815
7.4325,0.682541902386521
7.435,0.5845240003311427
7.4375,0.48927020791167974
7.44,0.395348023480243
7.4425,0.30278813936122123
7.445,0.2132160547175841
7.4475,0.12927852831075506
7.45,0.0535586952087657
7.4525,-0.01252290730399923
7.455,-0.0692521898202899
7.4575,-0.1183307523151967
7.46,-0.16194509514897465
7.4625,-0.2017226367625828
7.465,-0.2380981412871415
7.4675,-0.2703284576929116
7.47,-0.2970416472411262
7.4725,-0.3169920000464597
7.475,-0.3296762630511801
7.4775,-0.3355901445517712
7.48,-0.3360906850522194
7.4825,-0.33301268460485967
7.485,-0.3282835041802395
7.4875,-0.323719680445015
7.49,-0.32099429047344236
7.4925,-0.3215893418057624
7.495,-0.3265678275615214
7.4975,-0.3362121366603466
7.5,-0.3497642963689183
7.5025,-0.3654831930152353
7.505,-0.38104942167903627
7.5075,-0.3941709392209898
7.51,-0.40317023289399007
7.5125,-0.4073675926129424
7.515,-0.40717882197943867
7.5175,-0.40395110792435074
7.52,-0.39960100476350624
7.5225,-0.3961086340159505
7.525,-0.394944814808423
7.5275,-0.39658769982088826
7.53,-0.4003415307265859
7.5325,-0.40461649182349835
7.535,-0.40765667380029125
7.5375,-0.4084664219780812
7.54,-0.40749327077422587
7.5425,-0.40663431025938646
7.545,-0.40843051595112534
7.5475,-0.414780999390498
7.55,-0.4258459381855508
7.5525,-0.43975861987721765
7.555,-0.45334612426992466
7.5575,-0.4635291668578525
7.56,-0.46873036864723233
7.5625,-0.46961017432537266
7.565,-0.46875053387233856
7.5675,-0.469399169957381
7.57,-0.47386853661563827
7.5725,-0.4823877641155655
7.575,-0.4929651753734411
7.5775,-0.5022620645763224
7.58,-0.5069776360366431
7.5825,-0.5050935634680082
7.585,-0.49651899021611545
7.5875,-0.48301722859760154
7.59,-0.4676053372747476
7.5925,-0.45378463278779113
7.595,-0.4449093487975237
7.5975,-0.44375960585364527
7.6,-0.4521557946028843
7.6025,-0.4704729430396446
7.605,-0.49718085999215794
7.6075,-0.5287609457859911
7.61,-0.5602739346580725
7.6125,-0.5865150363521003
7.615,-0.6033605644218353
7.6175,-0.6088132398084163
7.62,-0.6034189484341334
7.6225,-0.5900080699473134
7.625,-0.5729381388266296
7.6275,-0.5571032485427295
7.63,-0.5469423196872242
7.6325,-0.5455834890689624
7.635,-0.5541937967862445
7.6375,-0.5716290489006961
7.64,-0.5945523093511571
7.6425,-0.6181534067769872
7.645,-0.637365598032843
7.6475,-0.648183003839549
7.65,-0.6485967334251245
7.6525,-0.6388734572710926
7.655,-0.621221321880078
7.6575,-0.5990991090863768
7.66,-0.5764446917806881
7.6625,-0.5569999548307062
7.665,-0.5438141977754033
7.6675,-0.538959258004864
7.67,-0.5434217034971445
7.6725,-0.5570362517219741
7.675,-0.5783265943139647
7.6775,-0.6043182033104926
7.68,-0.6306217655087789
7.6825,-0.652082595620025
7.685,-0.6639895724869764
7.6875,-0.6634645130681163
7.69,-0.6504868814499449
7.6925,-0.6281338479876892
7.695,-0.6019197361264297
7.6975,-0.5784348846908955
7.7,-0.5636836757873688
7.7025,-0.5615560877346905
7.705,-0.5727906426152647
7.7075,-0.5946839145309325
7.71,-0.6216714904864656
7.7125,-0.6466956895173714
7.715,-0.6630283349241048
7.7175,-0.6660613697921961
7.72,-0.6545801521935067
7.7225,-0.6311559637984585
7.725,-0.6014915930856266
7.7275,-0.5728231933840612
7.73,-0.5518007656575686
7.7325,-0.5425342740824047
7.735,-0.5455311361737736
7.7375,-0.5579451005791431
7.74,-0.5749915537292682
7.7425,-0.5918575149850257
7.745,-0.605258662460446
7.7475,-0.6140646797366504
7.75,-0.618938024425408
7.7525,-0.6213804031851776
7.755,-0.6227270905099658
7.7575,-0.6234884890436074
7.76,-0.6231943469969862
7.7625,-0.6207003317929067
7.765,-0.6147978748311181
7.7675,-0.604898958916348
7.77,-0.5915444097812069
7.7725,-0.576525416577131
7.775,-0.5625190461828984
7.7775,-0.5523083561421056
7.78,-0.5478488045115123
7.7825,-0.5495588881546898
7.785,-0.5561441320570738
7.7875,-0.5650180512655995
7.79,-0.5731222195431194
7.7925,-0.5778315925963038
7.795,-0.5776727039333978
7.7975,-0.5726788112779383
7.8,-0.5642922450588511
7.8025,-0.5548308665549165
7.805,-0.5466906178501065
7.8075,-0.5415893126256497
7.81,-0.5401513221265528
7.8125,-0.5419557409647623
7.815,-0.5459240376355154
7.8175,-0.5507659495029292
7.82,-0.5552298011424913
7.8225,-0.5580888742685459
7.825,-0.5580102035942073
7.8275,-0.5535428734365029
7.83,-0.5433638380053385
7.8325,-0.5267149218425597
7.835,-0.5038178364237793
7.8375,-0.47605403231607996
7.84,-0.44579665454361384
7.8425,-0.41590261848985494
7.845,-0.388998112520262
7.8475,-0.36680412166875676
7.85,-0.34975735904005834
7.8525,-0.3370304496534362
7.855,-0.32685388223375483
7.8575,-0.31695819430485445
7.86,-0.3050162465334089
7.8625,-0.2890725068167681
7.865,-0.2679998190725974
7.8675,-0.2419685955428426
7.87,-0.2127678305156873
7.8725,-0.18371948293898901
7.875,-0.15902505607852424
7.8775,-0.14265306222196414
7.88,-0.13713877969436228
7.8825,-0.14275490190458187
7.885,-0.15737546672098063
7.8875,-0.17707356502264207
7.89,-0.19721441127375783
7.8925,-0.21366183778999387
7.895,-0.22375689757646475
7.8975,-0.22689450951866894
7.9,-0.22468186940399423
7.9025,-0.22070261636783148
7.905,-0.2198657130712089
7.9075,-0.22732496566414115
7.91,-0.24710103387837
7.9125,-0.28076765331445985
7.915,-0.32671137820197776
7.9175,-0.38036305153388456
7.92,-0.435399028330859
7.9225,-0.48543959395142594
7.925,-0.5255604893555912
7.9275,-0.5531221954902995
7.93,-0.5678338174823367
7.9325,-0.5712884548776488
7.935,-0.5662723672102375
7.9375,-0.556055771100146
7.94,-0.5437921732556648
7.9425,-0.5321222206970032
7.945,-0.5230153101574009
7.9475,-0.5177590946113733
7.95,-0.5169130257890463
7.9525,-0.5200876519552957
7.955,-0.5256082972929704
7.9575,-0.5303521640232277
7.96,-0.5301376029140477
7.9625,-0.5208859394372214
7.965,-0.5004131511650394
7.9675,-0.4703209131733502
7.97,-0.4372540254860456
7.9725,-0.41287984774541464
7.975,-0.41228146785572595
7.9775,-0.4509219974509491
7.98,-0.5408060293040146
7.9825,-0.6867875006059063
7.985,-0.8839957919475705
7.9875,-1.117007954122888
7.99,-1.360792218207329
7.9925,-1.582856188925429
7.995,-1.7457640036896864
7.9975,-1.809418422510909
8.0,-1.733158068145311
8.0025,-1.4784646987217334
8.005,-1.013441598900539
8.0075,-0.3198058537076743
8.01,0.5981480570202456
8.0125,1.7048602264549846
8.015,2.9285815343816295
8.0175,4.163647549158004
8.02,5.281770789567843
8.0225,6.151477629794062
8.025,6.662000399340017
8.0275,6.746009795004168
8.03,6.3952250596743525
8.0325,5.664346155161067
8.035,4.661583243865985
8.0375,3.5275834388677763
8.04,2.4077855005039694
8.0425,1.4251399531496383
8.045,0.6599824034681331
8.0475,0.14158025147072456
8.05,-0.14775416984351794
8.0525,-0.2587620972571132
8.055,-0.2567465051532827
8.0575,-0.20414761942309717
8.06,-0.14844773367905978
8.0625,-0.11717159438502019
8.065,-0.11920832423686915
8.0675,-0.15004648396361997
8.07,-0.1982060024615064
8.0725,-0.2508632405201267
8.075,-0.2976799016072633
8.0775,-0.332628762806543
8.08,-0.35408643243640253
8.0825,-0.36376755916014336
8.085,-0.3652056205533797
8.0875,-0.36235887227148184
8.09,-0.35861950744821336
8.0925,-0.3562547505072706
8.095,-0.35621976601089683
8.0975,-0.3582751050747468
8.1,-0.3613189160870879
8.1025,-0.3638120270290983
8.105,-0.3641894720153958
8.1075,-0.36121525000575005
8.11,-0.3542708088521786
8.1125,-0.3435266174406045
8.115,-0.3299069406011848
8.1175,-0.3148226349863517
8.12,-0.2997789765126012
8.1225,-0.2860211777870175
8.125,-0.27430687462897785
8.1275,-0.2648011078993448
8.13,-0.2570791181793794
8.1325,-0.2502527588924701
8.135,-0.24321137433629667
8.1375,-0.23489905874381853
8.14,-0.2245353082971582
8.1425,-0.21175716632624353
8.145,-0.19672574056108777
8.1475,-0.18020091458810542
8.15,-0.16348700983710848
8.1525,-0.14813799427713314
8.155,-0.1354560084806323
8.1575,-0.12601554672920406
8.16,-0.11951062018402316
8.1625,-0.11506136835170877
8.165,-0.11181738174835425
8.1675,-0.10946530454859092
8.17,-0.1082679285989376
8.1725,-0.10854707487581945
8.175,-0.10990064027477477
8.1775,-0.11066793332348739
8.18,-0.10807299067228693
8.1825,-0.09912169429442053
8.185,-0.08190373430407283
8.1875,-0.056685312778617915
8.19,-0.026213622258646794
8.1925,0.00501711528822108
8.195,0.03231962300573633
8.1975,0.05258607741484019
8.2,0.06554945195557997
8.2025,0.0739838894660471
8.205,0.08273368797837122
8.2075,0.0969841318736274
8.21,0.12051249962291714
8.2125,0.1545937227987408
8.215,0.1978651073003339
8.2175,0.24703615619836142
8.22,0.29806281186566874
8.2225,0.34734527577416563
8.225,0.3926135396313895
8.2275,0.4333429900222706
8.23,0.47069692363806986
8.2325,0.5070842678269167
8.235,0.5454719237452879
8.2375,0.5886236816434232
8.24,0.6384408943284576
8.2425,0.695543332742455
8.245,0.7591704323709154
8.2475,0.8274279012983912
8.25,0.8978406962754579
8.2525,0.9680728376884928
8.255,1.0365683035232838
8.2575,1.1028493035812668
8.26,1.1673365765769659
8.2625,1.2307818366937524
8.265,1.2936008795313152
8.2675,1.3554476538756912
8.27,1.4152361320152993
8.2725,1.4715749447074653
8.275,1.5233684566741625
8.2775,1.5702596363723327
8.28,1.612673290438497
8.2825,1.6514314844722295
8.285,1.6871536093066863
8.2875,1.7197686918782942
8.29,1.7483719728804745
8.2925,1.7714275559842834
8.295,1.7871320210374393
8.2975,1.7937329701287779
8.3,1.7897090555300315
8.3025,1.7738380919332994
8.305,1.745230024182235
8.3075,1.7033854396612609
8.31,1.648279047251077
8.3125,1.580401806339813
8.315,1.500700527908572
8.3175,1.4104432529274828
8.32,1.3111041916355208
8.3225,1.2043103439197027
8.325,1.091794693565566
8.3275,0.9753076386503483
8.33,0.8565562071201873
8.3325,0.7372951420964564
8.335,0.6195567879391192
8.3375,0.5058027681560017
8.34,0.39876366866997237
8.3425,0.30096358977242493
8.345,0.21419172776399634
8.3475,0.13924517418937446
8.35,0.07607803531307508
8.3525,0.024190445222883175
8.355,-0.01709670725814067
8.3575,-0.048738600415033244
8.36,-0.07235875578593556
8.3625,-0.09055768559574402
8.365,-0.10674191902716884
8.3675,-0.12436897622843918
8.37,-0.14589064183832268
8.3725,-0.17189429078215873
8.375,-0.20087500737222191
8.3775,-0.22979693765284162
8.38,-0.2552686080922353
8.3825,-0.27489053131014957
8.385,-0.2882390811628125
8.3875,-0.29707478991677855
8.39,-0.30465172197830115
8.3925,-0.314353049447313
8.395,-0.32817449281456856
8.3975,-0.3456927523115354
8.4,-0.36400341897364247
8.4025,-0.3787336459973834
8.405,-0.38577539694042917
8.4075,-0.3830276069294026
8.41,-0.371366103414318
8.4125,-0.3543810363807477
8.415,-0.3370123811563818
8.4175,-0.32374460353307194
8.42,-0.3171785913853742
8.4225,-0.31751436491952045
8.425,-0.3229659689436219
8.4275,-0.3307245722313338
8.43,-0.3379934987875415
8.4325,-0.3427767059582135
8.435,-0.34428931579015515
8.4375,-0.34295386131886385
8.44,-0.34002111493612797
8.4425,-0.3369876876124868
8.445,-0.335084923480173
8.4475,-0.33505259150198885
8.45,-0.3372170648967195
8.4525,-0.34171652981540995
8.455,-0.34864955024170335
8.4575,-0.35797824427378244
8.46,-0.3691775297721028
8.4625,-0.38083091459183116
8.465,-0.39050988290685096
8.4675,-0.395217286962179
8.47,-0.39240458949324747
8.4725,-0.38120787528803574
8.475,-0.36330414416104767
8.4775,-0.3428617678334334
8.48,-0.3254629692706481
8.4825,-0.3163820648055156
8.485,-0.31889567137367014
8.4875,-0.33324373792826356
8.49,-0.35656111309835514
8.4925,-0.3837467019895553
8.495,-0.4089568914484293
8.4975,-0.4272481236048481
8.5,-0.43585422960838566
8.5025,-0.4346843156614631
8.505,-0.4258993587104166
8.5075,-0.4128083367633001
8.51,-0.39860963326866844
8.5125,-0.38550798666279906
8.515,-0.3744893560326245
8.5175,-0.36571198065786326
8.52,-0.35921691330642347
8.5225,-0.35554186607687427
8.525,-0.35587540897344794
8.5275,-0.36161733861064504
8.53,-0.37353221716495905
8.5325,-0.39093240025322057
8.535,-0.41135454655032755
8.5375,-0.4309738559355944
8.54,-0.44565059159875564
8.5425,-0.45219975994201195
8.545,-0.449356775684818
8.5475,-0.43804568557167184
8.55,-0.4209016277096362
8.5525,-0.40136511301185285
8.555,-0.38280166454433084
8.5575,-0.36792964025360775
8.56,-0.35855434585225854
8.5625,-0.3554675519340359
8.565,-0.35843969577431184
8.5675,-0.3663414245434242
8.57,-0.37741496103378996
8.5725,-0.389616399536496
8.575,-0.40093443248819627
8.5775,-0.40968768629587515
8.58,-0.41485739585394443
8.5825,-0.41641941830894846
8.585,-0.41549483077313965
8.5875,-0.4141211242539697
8.59,-0.41461968256845516
8.5925,-0.41877741198002927
8.595,-0.42717593829722333
8.5975,-0.4389135621337975
8.6,-0.45177872153733384
8.6025,-0.46279743215823876
8.605,-0.4690244465610549
8.6075,-0.46841378819483986
8.61,-0.46054634414934287
8.6125,-0.44694805864177123
8.615,-0.4307879170014964
8.6175,-0.4159524415068429
8.62,-0.40578377144609157
8.6225,-0.4019646489766586
8.625,-0.4039956975085606
8.6275,-0.4094581341133316
8.63,-0.4149408719452269
8.6325,-0.4172912597757252
8.635,-0.4147773854182745
8.6375,-0.4077838217496879
8.64,-0.3987666296061847
8.6425,-0.39139708501226195
8.645,-0.3891366706714074
8.6475,-0.39379315078744365
8.65,-0.4047007263874359
8.6525,-0.41890920933634823
8.655,-0.43226412527424385
8.6575,-0.4408456038435336
8.66,-0.44218156358165916
8.6625,-0.43590263951285424
8.665,-0.4237834214133738
8.6675,-0.4092469462524124
8.67,-0.396452757256724
8.6725,-0.38915476113545877
8.675,-0.38960420162773707
8.6775,-0.39780496415875716
8.68,-0.41136389239626886
8.6825,-0.426040078113081
8.685,-0.4369084639003872
8.6875,-0.43984670376579776
8.69,-0.4329023911839454
8.6925,-0.4170738305958739
8.695,-0.3961753952954207
8.6975,-0.3757526166579851
8.7,-0.36138642092779716
8.7025,-0.3570101330237291
8.705,-0.3638703942241185
8.7075,-0.38043720336014375
8.71,-0.40308802448191994
8.7125,-0.4270924840405003
8.715,-0.44750004755801465
8.7175,-0.4598296575864006
8.72,-0.460674327015341
8.7225,-0.4483249250863066
8.725,-0.4233390524000781
8.7275,-0.3887663517028643
8.73,-0.34967754736430773
8.7325,-0.311879802603879
8.735,-0.2801523607130333
8.7375,-0.25669654345924253
8.74,-0.24050118435741136
8.7425,-0.22795827962433304
8.745,-0.21450621548610313
8.7475,-0.19659786549496328
8.75,-0.17313933331960224
8.7525,-0.14582161783216122
8.755,-0.11832371642163213
8.7575,-0.09487943312750464
8.76,-0.0788891628868492
8.7625,-0.07206423206863845
8.765,-0.07419864451917328
8.7675,-0.08334679379822711
8.77,-0.09612798274250704
8.7725,-0.10807122622238516
8.775,-0.11416881094236726
8.7775,-0.1098693150261884
8.78,-0.09247356873357837
8.7825,-0.062426941752685414
8.785,-0.02371235277503671
8.7875,0.01716768998379609
8.79,0.05332265280663794
8.7925,0.07970681119080783
8.795,0.09442405712088604
8.7975,0.09869931074107718
8.8,0.09581563416718801
8.8025,0.08966627082855008
8.805,0.08352376236979933
8.8075,0.07936246398587694
8.81,0.07777553980836206
8.8125,0.0783200305555111
8.815,0.08004269584887162
8.8175,0.081966396334762
8.82,0.08340458659832889
8.8225,0.08407039214862083
8.825,0.0840214669249215
8.8275,0.0835174301020043
8.83,0.0828659049261177
8.8325,0.08230920794338892
8.835,0.08197228810637934
8.8375,0.08186602237193187
8.84,0.0819248733084372
8.8425,0.08205479044544789
8.845,0.0821727441881601
8.8475,0.08222859491171404
8.85,0.08220885037617347
8.8525,0.08212766459086619
8.855,0.08201247489527697
8.8575,0.08189067877278974
8.86,0.08178112248620248
8.8625,0.0816913172360113
8.865,0.08161918605775924
8.8675,0.08155716564557619
8.87,0.08149653813709067
8.8725,0.08143056180273843
8.875,0.08135585892604445
8.8775,0.0812722567371018
8.88,0.0811816881767141
8.8825,0.08108683330390319
8.885,0.08099001762782616
8.8875,0.08089261769590171
8.89,0.08079497621176522
8.8925,0.08069666955053138
8.895,0.08059691746286261
8.8975,0.08049495622896985
8.9,0.08039027228782855
8.9025,0.0802826738880919
8.905,0.08017223681019293
8.9075,0.08005918641711185
8.91,0.0799437756810649
8.9125,0.07982619859872132
8.915,0.07970655319530687
8.9175,0.07958484776832435
8.92,0.07946103285087623
8.9225,0.07933503968089899
8.925,0.07920681085917324
8.9275,0.07907631646770315
8.93,0.07894355586921478
8.9325,0.07880854978563336
8.935,0.07867132862267044
8.9375,0.0785319220264391
8.94,0.07839035247844481
8.9425,0.07824663346743634
8.945,0.07810077115810557
8.9475,0.07795276777731645
8.95,0.07780262504494903
8.9525,0.07765034656520113
8.955,0.07749593880828937
8.9575,0.07733941088452412
8.96,0.07718077361583597
8.9625,0.07702003844654444
8.965,0.07685721659001896
8.9675,0.07669231859157319
8.97,0.07652535429341588
8.9725,0.07635633306744952
8.975,0.07618526414668712
8.9775,0.0760121569163242
8.98,0.07583702108811745
8.9825,0.07565986674554355
8.985,0.07548070429193939
8.9875,0.07529954435242042
8.99,0.07511639767645877
8.9925,0.07493127507090709
8.995,0.07474418737304737
8.9975,0.07455514545733331
9.0,0.07436416026128785
9.0025,0.07417124281529154
9.005,0.07397640426528275
9.0075,0.07377965588355083
9.01,0.07358100906824316
9.0125,0.07338047533549487
9.015,0.07317806630897622
9.0175,0.07297379371072803
9.02,0.07276766935535856
9.0225,0.07255970514788143
9.025,0.07234991308423885
9.0275,0.07213830525306185
9.03,0.07192489383735448
9.0325,0.07170969111528477
9.035,0.07149270945983628
9.0375,0.07127396133751646
9.04,0.07105345930653975
9.0425,0.0708312160149154
9.045,0.07060724419874412
9.0475,0.07038155668085143
9.05,0.07015416636973426
9.0525,0.06992508625870725
9.055,0.06969432942511353
9.0575,0.06946190902949273
9.06,0.06922783831464947
9.0625,0.06899213060461663
9.065,0.0687547993035425
9.0675,0.06851585789454326
9.07,0.06827531993855758
9.0725,0.06803319907322557
9.075,0.0677895090117981
9.0775,0.06754426354207042
9.08,0.06729747652532787
9.0825,0.06704916189529216
9.085,0.06679933365706035
9.0875,0.066548005886033
9.09,0.06629519272683242
9.0925,0.06604090839221481
9.095,0.06578516716197987
9.0975,0.0655279833818811
9.1,0.06526937146253785
9.1025,0.0650093458783494
9.105,0.06474792116641002
9.1075,0.0644851119254239
9.11,0.06422093281461985
9.1125,0.06395539855266548
9.115,0.06368852391658052
9.1175,0.06342032374064957
9.12,0.06315081291533464
9.1225,0.06288000638618745
9.125,0.06260791915276191
9.1275,0.06233456626752761
9.13,0.06205996283478372
9.1325,0.061784124009573976
9.135,0.061507064996602384
9.1375,0.061228801049149406
9.14,0.0609493474679889
9.1425,0.060668719600305836
9.145,0.060386932838614925
9.1475,0.06010400261967986
9.15,0.05981994442343296
9.1525,0.059534773771895755
9.155,0.05924850622810048
9.1575,0.05896115739501331
9.16,0.05867274291445933
9.1625,0.05838327846604937
9.165,0.058092779766108466
9.1675,0.05780126256660585
9.17,0.05750874265408619
9.1725,0.057215235848602164
9.175,0.05692075800264874
9.1775,0.0566253250000994
9.18,0.05632895275514437
9.1825,0.05603165721123124
9.185,0.05573345434000753
9.1875,0.05543436014026516
9.19,0.055134390636886806
9.1925,0.054833561879794185
9.195,0.054531889942898336
9.1975,0.05422939092305261
9.2,0.053926080939008525
9.2025,0.053621976130374144
9.205,0.053317092656575076
9.2075,0.05301144669581757
9.21,0.05270505444405364
9.2125,0.05239793211394853
9.215,0.05209009593385107
9.2175,0.05178156214676722
9.22,0.05147234700933678
9.2225,0.05116246679081304
9.225,0.05085193777204535
9.2275,0.0505407762444649
9.23,0.05022899850907318
9.2325,0.04991662087543335
9.235,0.04960365966066442
9.2375,0.04929013118843825
9.24,0.04897605178797953
9.2425,0.048661437793069404
9.245,0.04834630554105273
9.2475,0.04803067137184922
9.25,0.047714551626968416
9.2525,0.047397962648527664
9.255,0.04708092077827335
9.2575,0.04676344235660516
9.26,0.046445543721603665
9.2625,0.04612724120806133
9.265,0.04580855114651678
9.2675,0.04548948986229252
9.27,0.0451700736745361
9.2725,0.04485031889526493
9.275,0.04453024182841573
9.2775,0.04420985876889811
9.28,0.04388918600165263
9.2825,0.04356823980071297
9.285,0.043247036428272025
9.2875,0.04292559213375193
9.29,0.04260392315287776
9.2925,0.042282045706754555
9.295,0.0419599760009476
9.2975,0.041637730224566086
9.3,0.04131532454935089
9.3025,0.04099277512876671
9.305,0.04067009809709874
9.3075,0.04034730956855401
9.31,0.040024425636367426
9.3125,0.03970146237191246
9.315,0.039378435823816164
9.3175,0.03905536201707808
9.32,0.03873225695219297
9.3225,0.038409136604277486
9.325,0.038086016922200705
9.3275,0.0377629138277186
9.33,0.0374398432146126
9.3325,0.037116820947832856
9.335,0.03679386286264616
9.3375,0.0364709847637886
9.34,0.036148202424622765
9.3425,0.03582553158629981
9.345,0.035502987956926225
9.3475,0.03518058721073522
9.35,0.03485834498726247
9.3525,0.03453627689052603
9.355,0.03421439848821013
9.3575,0.03389272531085288
9.36,0.03357127285103803
9.3625,0.03325005656259127
9.365,0.032929091859781254
9.3675,0.032608394116525996
9.37,0.0322879786656044
9.3725,0.031967860797872956
9.375,0.03164805576148767
9.3775,0.031328578761130745
9.38,0.031009444957241724
9.3825,0.030690669465252732
9.385,0.030372267354827346
9.3875,0.03005425364910312
9.39,0.02973664332393789
9.3925,0.029419451307160657
9.395,0.02910269247782735
9.3975,0.02878638166548198
9.4,0.028470533649423424
9.4025,0.028155163157977788
9.405,0.027840284867775986
9.4075,0.02752591340303614
9.41,0.02721206333485046
9.4125,0.026898749180476245
9.415,0.026585985402630973
9.4175,0.02627378640879123
9.42,0.02596216655049624
9.4225,0.02565114012265624
9.425,0.02534072136286601
9.4275,0.025030924450723628
9.43,0.024721763507154087
9.4325,0.02441325259373746
9.435,0.02410540571204123
9.4375,0.023798236802956722
9.44,0.02349175974603999
9.4425,0.02318598835885746
9.445,0.022880936396336652
9.4475,0.02257661755012207
9.45,0.022273045447936093
9.4525,0.02197023365294497
9.455,0.02166819566312974
9.4575,0.021366944910662072
9.46,0.021066494761284672
9.4625,0.020766858513695884
9.465,0.020468049398938107
9.4675,0.020170080579790032
9.47,0.019872965150162708
9.4725,0.019576716134499857
9.475,0.019281346487182938
9.4775,0.01898686909194147
9.48,0.018693296761269015
9.4825,0.01840064223584451
9.485,0.01810891818395861
9.4875,0.017818137200944505
9.49,0.017528311808612782
9.4925,0.017239454454690224
9.495,0.01695157751226263
9.4975,0.01666469327922188
9.5,0.01637881397771763
9.5025,0.016093951753613826
9.505,0.01581011867595014
9.5075,0.015527326736408381
9.51,0.015245587848783737
9.5125,0.014964913848460713
9.515,0.014685316491893462
9.5175,0.01440680745609019
9.52,0.014129398338101482
9.5225,0.01385310065451252
9.525,0.013577925840939305
9.5275,0.013303885251529105
9.53,0.013030990158465379
9.5325,0.012759251751477423
9.535,0.01248868113735472
9.5375,0.012219289339466052
9.54,0.011951087297283211
9.5425,0.01168408586590902
9.545,0.011418295815609358
9.5475,0.011153727831348928
9.55,0.010890392512330815
9.5525,0.010628300371539922
9.555,0.010367461835290475
9.5575,0.010107887242777771
9.56,0.009849586845634252
9.5625,0.00959257080748992
9.565,0.00933684920353711
9.5675,0.009082432020099711
9.57,0.008829329154206735
9.5725,0.008577550413170059
9.575,0.008327105514166102
9.5775,0.008078004083821196
9.58,0.007830255657800655
9.5825,0.00758386968040161
9.585,0.0073388555041498695
9.5875,0.007095222389400968
9.59,0.006852979503945491
9.5925,0.006612135922618553
9.595,0.006372700626913268
9.5975,0.0061346825045980845
9.6,0.005898090349337888
9.6025,0.005662932860318863
9.605,0.005429218641877026
9.6075,0.005196956203130423
9.61,0.004966153957614932
9.6125,0.004736820222923733
9.615,0.004508963220350547
9.6175,0.004282591074536741
9.62,0.004057711813122362
9.6225,0.0038343333664010663
9.625,0.0036124635669787966
9.6275,0.0033921101494360484
9.63,0.0031732807499935773
9.6325,0.0029559829061815124
9.635,0.0027402240565118892
9.6375,0.002526011540154655
9.64,0.0023133525966172064
9.6425,0.0021022543654274813
9.645,0.0018927238858205768
9.6475,0.001684768096428889
9.65,0.001478393834975741
9.6525,0.0012736078379725212
9.655,0.001070416740419324
9.6575,0.0008688270755091125
9.66,0.0006688452743354016
9.6625,0.00047047766560342965
9.665,0.00027373047534470817
9.6675,7.860982663480419e-05
9.67,-0.00011487826068579476
9.6725,-0.0003067278702878297
9.675,-0.0004969331896264664
9.6775,-0.0006854885102115246
9.68,-0.0008723882278746939
9.6825,-0.0010576268430336582
9.685,-0.001241198960953029
9.6875,-0.0014230992920019711
9.69,-0.001603322651908434
9.6925,-0.0017818639620099438
9.695,-0.001958718249501031
9.6975,-0.0021338806476774385
9.7,-0.0023073463961773345
9.7025,-0.0024791108412197237
9.705,-0.002649169435840167
9.7075,-0.002817517740123808
9.71,-0.0029841514214356286
9.7125,-0.0031490662546478886
9.715,-0.003312258122364703
9.7175,-0.0034737230151437666
9.72,-0.003633457031715229
9.7225,-0.0037914563791977165
9.725,-0.0039477173733115205
9.7275,-0.004102236438588971
9.73,-0.004255010108582037
9.7325,-0.0044060350260672065
9.735,-0.004555307943247699
9.7375,-0.004702825721953026
9.74,-0.004848585333835908
9.7425,-0.00499258386056656
9.745,-0.00513481849402435
9.7475,-0.005275286536486926
9.75,-0.005413985400816936
9.7525,-0.005550912610646445
9.755,-0.005686065800559058
9.7575,-0.0058194427162697225
9.76,-0.0059510412148021
9.7625,-0.006080859264663395
9.765,-0.006208894946016543
9.7675,-0.006335146450849793
9.77,-0.0064596120831436595
9.7725,-0.0065822902590353775
9.775,-0.006703179506980972
9.7775,-0.00682227846791512
9.78,-0.006939585895408963
9.7825,-0.007055100655825987
9.785,-0.00716882172847599
9.7875,-0.007280748205767108
9.79,-0.0073908792933557454
9.7925,-0.007499214310294224
9.795,-0.007605752689176043
9.7975,-0.007710493976278672
9.8,-0.007813437831703953
9.8025,-0.007914584029516166
9.805,-0.0080139324578779
9.8075,-0.00811148311918382
9.81,-0.00820723613019257
9.8125,-0.008301191722156856
9.815,-0.008393350240951834
9.8175,-0.008483712147201726
9.82,-0.008572278016404658
9.8225,-0.008659048539055615
9.825,-0.008744024520767474
9.8275,-0.008827206882390115
9.83,-0.008908596660127586
9.8325,-0.008988195005653342
9.835,-0.009066003186223697
9.8375,-0.009142022584789541
9.84,-0.009216254700106272
9.8425,-0.009288701146841988
9.845,-0.009359363655683893
9.8475,-0.009428244073442978
9.85,-0.009495344363156978
9.8525,-0.009560666604191644
9.855,-0.009624212992340354
9.8575,-0.009685985839922067
9.86,-0.009745987575877699
9.8625,-0.009804220745864978
9.865,-0.009860688012351777
9.8675,-0.009915392154707985
9.87,-0.009968336069295869
9.8725,-0.010019522769558833
9.875,-0.010068955386108587
9.8775,-0.010116637166810665
9.88,-0.010162571476868438
9.8825,-0.010206761798905723
9.885,-0.01024921173304805
9.8875,-0.010289924997002573
9.89,-0.010328905426136651
9.8925,-0.010366156973555056
9.895,-0.01040168371017585
9.8975,-0.010435489824804944
9.9,-0.01046757962420944
9.9025,-0.010497957533189783
9.905,-0.010526628094650705
9.9075,-0.010553595969670876
9.91,-0.010578865937571178
9.9125,-0.010602442895981612
9.915,-0.01062433186090684
9.9175,-0.010644537966790485
9.92,-0.010663066466578315
9.9225,-0.010679922731780355
9.925,-0.010695112252531959
9.9275,-0.010708640637653753
9.93,-0.010720513614710433
9.9325,-0.01073073703006841
9.935,-0.010739316848952329
9.9375,-0.010746259155500495
9.94,-0.010751570152819195
9.9425,-0.010755256163035977
9.945,-0.01075732362735197
9.9475,-0.010757779106093246
9.95,-0.01075662927876121
9.9525,-0.01075388094408199
9.955,-0.010749541020054806
9.9575,-0.010743616543999324
9.96,-0.010736114672602052
9.9625,-0.01072704268196182
9.965,-0.01071640796763434
9.9675,-0.01070421804467594
9.97,-0.010690480547686513
9.9725,-0.010675203230851565
9.975,-0.010658393967983371
9.9775,-0.010640060752561284
9.98,-0.010620211697771238
9.9825,-0.010598855036544428
9.985,-0.010575999121595198
9.9875,-0.010551652425458118
9.99,-0.010525823540524237
9.9925,-0.010498521179076625
9.995,-0.010469754173325185
9.9975,-0.01043953147544072
10.0,-0.010407862157588273
10.0025,-0.010374755411959749
10.005,-0.010340220550805856
10.0075,-0.010304267006467416
10.01,-0.010266904331406054
10.0125,-0.01022814219823426
10.015,-0.010187990399744754
10.0175,-0.010146458848939149
10.02,-0.010103557579055913
10.0225,-0.010059296743597632
10.025,-0.0100136866163576
10.0275,-0.009966737591445788
10.03,-0.009918460183314206
10.0325,-0.009868865026781701
10.035,-0.009817962877058327
10.0375,-0.009765764609769328
10.04,-0.009712281220978792
10.0425,-0.009657523827212867
10.045,-0.009601503665482406
10.0475,-0.00954423209330473
10.05,-0.00948572058872431
10.0525,-0.009425980750332288
10.055,-0.009365024297285095
10.0575,-0.009302863069322695
10.06,-0.009239509026787303
10.0625,-0.009174974250643345
10.065,-0.009109270942499092
10.0675,-0.009042411424629625
10.07,-0.008974408139999685
10.0725,-0.008905273652283939
10.075,-0.008835020645881913
10.0775,-0.00876366192592563
10.08,-0.008691210418280132
10.0825,-0.008617679169540498
10.085,-0.00854308134703251
10.0875,-0.008467430238826304
10.09,-0.00839073925377104
10.0925,-0.008313021921552761
10.095,-0.00823429189276733
10.0975,-0.008154562938988275
10.1,-0.008073848952800297
10.1025,-0.00799216394776929
10.105,-0.007909522058333928
10.1075,-0.007825937539633522
10.11,-0.007741424767325924
10.1125,-0.007655998237484354
10.115,-0.007569672566673342
10.1175,-0.007482462492273225
10.12,-0.00739438287304061
10.1225,-0.0073054486897702695
10.125,-0.007215675045798709
10.1275,-0.007125077167020269
10.13,-0.007033670401138284
10.1325,-0.006941470216089534
10.135,-0.006848492197947524
10.1375,-0.0067547520490356455
10.14,-0.006660265587290709
10.1425,-0.0065650487478947335
10.145,-0.006469117587662387
10.1475,-0.0063724882916051965
10.15,-0.006275177179708515
10.1525,-0.0061772007107478155
10.155,-0.006078575479624225
10.1575,-0.005979318205869917
10.16,-0.005879445713946777
10.1625,-0.005778974910305175
10.165,-0.005677922766542525
10.1675,-0.005576306320292687
10.17,-0.005474142703400448
10.1725,-0.005371449199040908
10.175,-0.005268243316296538
10.1775,-0.005164542855743321
10.18,-0.005060365929078819
10.1825,-0.004955730897367925
10.185,-0.004850656212127462
10.1875,-0.004745160181854465
10.19,-0.004639260735602404
10.1925,-0.0045329752969645275
10.195,-0.004426320891940709
10.1975,-0.004319314569907784
10.2,-0.004211974109196902
10.2025,-0.0041043188242756695
10.205,-0.003996370139058165
10.2075,-0.0038881515157440523
10.21,-0.0037796874109210393
10.2125,-0.0036710012190576853
10.215,-0.0035621126336920182
10.2175,-0.003453035382205964
10.22,-0.0033437766465703464
10.2225,-0.0032343394012079303
10.225,-0.003124728173198965
10.2275,-0.003014957349597611
10.23,-0.0029050594246735834
10.2325,-0.002795089141109451
10.235,-0.0026851191986047205
10.2375,-0.0025752248696029696
